2020-12-21 15:02:35.252648
BCG	ECG
2083	2046
2093	2044
2104	2040
2104	2041
2111	2034
2121	2034
2121	2033
2123	2035
2103	2036
2093	2035
2079	2034
2081	2033
2089	2030
2094	2033
2105	2035
2090	2031
2055	2037
2072	2040
2099	2043
2123	2039
2116	2035
2105	2035
2083	2035
2089	2032
2081	2028
2081	2026
2097	2025
2093	2024
2074	2018
2090	2017
2134	2021
2126	2024
2108	2025
2142	2024
2157	2028
2138	2032
2109	2036
2078	2035
2089	2037
2084	2039
2089	2039
2121	2033
2131	2033
2118	2035
2109	2034
2101	2036
2100	2039
2132	2042
2122	2040
2139	2041
2183	2045
2224	2048
2221	2050
2247	2052
2231	2053
2205	2051
2207	2047
2199	2045
2252	2041
2310	2035
2345	2031
2419	2028
2496	2027
2503	2026
2501	2024
2565	2022
2604	2019
2603	2020
2603	2017
2634	2019
2658	2018
2666	2019
2648	2018
2637	2017
2651	2017
2648	2015
2589	2017
2598	2021
2635	2022
2618	2023
2608	2022
2610	2028
2617	2027
2609	2031
2581	2033
2580	2035
2610	2033
2610	2033
2581	2033
2548	2035
2541	2034
2538	2035
2513	2035
2517	2037
2515	2033
2498	2035
2456	2026
2441	2023
2453	2019
2440	2020
2433	2023
2435	2030
2417	2037
2363	2041
2324	2047
2335	2053
2357	2056
2335	2061
2284	2060
2241	2059
2245	2057
2239	2055
2216	2044
2199	2042
2189	2040
2164	2040
2141	2038
2154	2038
2171	2039
2144	2034
2111	2032
2119	2033
2130	2035
2114	2034
2076	2035
2073	2036
2084	2038
2060	2041
2036	2037
2036	2035
2046	2038
2030	2042
2002	2042
2003	2043
2006	2041
2000	2042
1973	2040
1966	2042
1968	2043
1953	2048
1929	2046
1927	2043
1931	2040
1917	2042
1891	2041
1896	2043
1891	2044
1871	2050
1849	2049
1867	2051
1877	2049
1869	2049
1841	2041
1847	2045
1859	2045
1841	2043
1831	2041
1841	2042
1843	2041
1826	2043
1812	2036
1825	2039
1844	2042
1826	2042
1809	2042
1824	2043
1830	2047
1827	2053
1823	2056
1831	2051
1840	2053
1835	2050
1805	2047
1808	2049
1829	2052
1830	2051
1814	2050
1825	2055
1845	2059
1827	2060
1798	2059
1813	2051
1838	2046
1844	2048
1814	2045
1823	2044
1837	2034
1838	2033
1831	2026
1842	2030
1866	2033
1861	2034
1835	2033
1842	2034
1868	2033
1855	2032
1825	2032
1844	2036
1865	2038
1852	2043
1816	2042
1829	2045
1855	2049
1849	2051
1817	2046
1823	2043
1840	2040
1834	2041
1818	2036
1844	2031
1884	2030
1867	2029
1875	2030
1929	2039
1986	2043
1987	2053
1925	2050
1874	2058
1857	2057
1815	2063
1754	2056
1752	2055
1785	2052
1818	2051
1829	2041
1859	2045
1878	2045
1878	2046
1877	2043
1893	2042
1904	2037
1901	2037
1887	2036
1898	2042
1921	2041
1921	2051
1913	2051
1930	2058
1943	2061
1930	2065
1916	2063
1933	2067
1951	2065
1946	2068
1929	2064
1943	2060
1957	2059
1956	2056
1952	2050
1960	2047
1983	2043
1978	2042
1963	2040
1969	2038
1992	2036
1981	2036
1969	2033
1981	2029
1993	2032
1997	2031
1991	2026
1986	2027
1998	2031
1999	2031
1981	2029
1989	2032
2006	2034
2000	2043
1987	2044
1988	2053
1991	2051
1961	2055
1941	2053
1943	2057
1951	2054
1939	2055
1910	2052
1912	2056
1938	2056
1936	2058
1925	2054
1923	2059
1937	2060
1928	2060
1920	2052
1925	2054
1938	2049
1937	2050
1932	2047
1933	2045
1951	2039
1949	2043
1927	2034
1939	2038
1956	2037
1959	2039
1949	2035
1953	2036
1968	2036
1963	2038
1949	2037
1962	2037
1986	2039
1975	2041
1956	2040
1965	2045
1962	2045
1962	2047
1952	2048
1964	2044
1989	2041
1971	2040
1955	2035
1967	2036
1984	2033
1979	2032
1971	2029
1982	2028
1998	2026
1989	2029
1978	2030
1983	2035
1995	2038
1998	2043
1991	2047
1995	2051
2012	2054
1992	2056
1978	2053
1989	2059
2001	2056
1997	2059
1980	2048
1993	2048
2010	2038
2010	2035
1999	2029
2008	2028
2021	2023
2017	2019
2000	2017
1999	2021
2013	2022
2015	2025
1997	2026
2008	2025
2039	2026
2022	2029
2000	2030
2009	2034
2032	2038
2027	2044
2010	2045
2020	2050
2043	2049
2043	2052
2027	2050
2041	2050
2047	2047
2050	2051
2036	2054
2033	2051
2039	2053
2028	2056
2013	2049
2015	2052
2023	2051
2013	2049
2004	2046
2016	2049
2036	2050
2029	2052
2009	2048
2008	2052
2024	2049
2029	2052
2026	2045
2075	2047
2147	2049
2161	2049
2123	2045
2062	2046
2045	2043
2004	2042
1936	2038
1908	2039
1935	2040
1951	2041
1965	2030
1990	2026
2016	2020
2025	2021
2020	2016
2030	2018
2049	2019
2038	2022
2021	2015
2032	2020
2048	2022
2044	2026
2038	2021
2051	2021
2081	2023
2076	2027
2050	2028
2043	2032
2069	2034
2075	2041
2053	2034
2055	2045
2077	2048
2061	2057
2049	2057
2065	2068
2090	2065
2074	2066
2057	2058
2068	2052
2079	2044
2075	2045
2069	2039
2082	2039
2092	2033
2082	2033
2070	2031
2083	2036
2100	2032
2092	2034
2076	2027
2083	2027
2087	2024
2067	2025
2056	2026
2054	2030
2059	2030
2043	2032
2024	2028
2031	2033
2033	2034
2019	2036
1999	2034
1995	2041
2013	2041
2021	2049
1988	2049
1992	2049
2002	2049
1991	2054
1978	2050
1996	2049
2011	2044
2008	2042
2003	2037
1996	2037
2009	2031
2006	2034
1996	2027
2004	2030
2027	2031
2026	2033
2013	2028
2011	2032
2025	2030
2020	2033
2003	2030
2016	2030
2027	2031
2021	2033
2019	2018
2019	2022
2022	2022
2018	2030
2001	2034
2004	2043
2022	2043
2021	2043
2014	2038
2026	2042
2029	2039
2024	2046
2017	2045
2013	2046
2036	2043
2038	2042
2030	2037
2040	2037
2051	2029
2043	2031
2035	2025
2027	2027
2034	2028
2042	2030
2035	2025
2042	2031
2055	2031
2050	2040
2031	2045
2026	2052
2053	2054
2054	2063
2033	2057
2026	2056
2036	2054
2040	2051
2032	2049
2031	2047
2046	2044
2045	2046
2030	2039
2025	2044
2041	2040
2038	2039
2034	2032
2043	2031
2061	2026
2062	2028
2043	2023
2041	2025
2057	2026
2054	2031
2041	2029
2046	2033
2061	2032
2054	2038
2039	2035
2046	2033
2066	2029
2049	2035
2024	2030
2026	2033
2033	2032
2031	2041
2023	2035
2022	2035
2038	2030
2035	2035
2015	2032
2011	2040
2031	2039
2027	2046
2011	2043
2017	2048
2051	2047
2075	2051
2105	2048
2142	2049
2163	2046
2103	2046
2027	2038
2001	2034
1965	2033
1926	2040
1907	2038
1936	2045
1971	2045
1988	2049
1995	2045
2021	2052
2044	2051
2043	2057
2021	2054
2031	2053
2053	2051
2053	2058
2048	2058
2056	2058
2074	2055
2067	2055
2051	2043
2053	2038
2063	2037
2068	2037
2050	2035
2053	2033
2065	2031
2065	2033
2058	2028
2061	2031
2073	2031
2068	2032
2059	2029
2067	2026
2088	2023
2097	2030
2086	2026
2084	2029
2097	2029
2097	2035
2088	2035
2099	2040
2108	2040
2099	2046
2084	2046
2081	2052
2093	2050
2091	2055
2084	2057
2079	2059
2093	2057
2080	2061
2067	2060
2052	2063
2054	2063
2043	2063
2030	2052
2020	2046
2032	2039
2020	2040
1998	2037
1993	2034
2005	2034
2008	2040
1989	2039
1989	2041
2003	2040
1995	2042
1986	2043
2006	2048
2024	2041
2018	2042
1994	2042
1989	2045
2007	2049
2007	2052
2001	2048
2007	2046
2027	2043
2031	2048
2017	2042
2010	2047
2028	2043
2027	2045
2008	2041
2019	2040
2038	2031
2027	2033
2009	2024
2009	2024
2027	2025
2023	2033
2008	2030
2009	2032
2018	2028
2017	2033
2006	2032
2020	2041
2035	2040
2032	2039
2027	2035
2018	2031
2027	2025
2029	2026
2019	2021
2027	2025
2037	2024
2036	2035
2032	2030
2032	2028
2043	2028
2043	2027
2032	2027
2039	2027
2049	2023
2039	2024
2019	2023
2026	2032
2039	2031
2045	2037
2034	2038
2033	2048
2042	2049
2048	2053
2033	2053
2031	2054
2047	2054
2044	2060
2042	2057
2050	2063
2065	2065
2054	2067
2043	2064
2043	2062
2060	2067
2066	2070
2060	2065
2053	2070
2058	2067
2053	2068
2032	2061
2031	2062
2048	2057
2047	2051
2033	2033
2030	2030
2039	2022
2032	2021
2023	2017
2027	2019
2036	2018
2037	2021
2030	2018
2050	2024
2103	2025
2154	2027
2156	2026
2121	2029
2066	2026
2016	2032
1963	2026
1926	2029
1931	2027
1940	2029
1949	2027
1970	2035
2002	2034
2015	2043
2023	2042
2030	2051
2053	2055
2059	2065
2051	2061
2052	2066
2065	2063
2068	2066
2056	2058
2061	2055
2077	2051
2076	2052
2063	2048
2061	2048
2077	2045
2075	2055
2057	2051
2063	2058
2083	2058
2084	2062
2068	2058
2066	2066
2093	2068
2090	2068
2074	2058
2076	2056
2090	2053
2089	2054
2079	2050
2083	2053
2103	2049
2107	2051
2087	2046
2086	2048
2107	2040
2103	2043
2100	2037
2095	2041
2099	2036
2096	2033
2081	2030
2068	2030
2079	2025
2076	2028
2051	2024
2030	2024
2040	2021
2042	2028
2023	2021
2007	2029
2012	2029
2013	2040
2002	2037
1995	2041
2015	2036
2014	2042
1999	2034
1998	2039
2019	2038
2028	2042
2013	2035
2007	2038
2016	2034
2021	2037
2013	2035
2010	2041
2028	2039
2026	2042
2018	2042
2017	2039
2029	2030
2032	2030
2018	2023
2025	2028
2039	2024
2048	2027
2037	2027
2030	2032
2038	2029
2045	2034
2029	2036
2020	2046
2035	2043
2038	2050
2029	2053
2028	2058
2048	2061
2043	2069
2022	2069
2021	2071
2040	2068
2034	2069
2027	2060
2031	2061
2047	2052
2048	2050
2025	2043
2018	2034
2032	2024
2038	2026
2029	2021
2027	2021
2041	2013
2044	2012
2034	2002
2033	2007
2049	2004
2048	2018
2031	2018
2031	2023
2049	2027
2047	2035
2042	2031
2035	2034
2051	2033
2055	2041
2041	2040
2036	2039
2056	2035
2056	2038
2041	2036
2045	2035
2061	2041
2060	2055
2054	2056
2050	2065
2069	2062
2075	2061
2060	2055
2055	2054
2063	2049
2057	2054
2038	2053
2032	2056
2050	2055
2051	2057
2034	2052
2031	2051
2039	2050
2042	2056
2028	2054
2019	2054
2036	2048
2037	2051
2035	2043
2055	2045
2108	2045
2152	2046
2157	2038
2120	2038
2072	2032
2037	2036
1989	2028
1924	2033
1917	2028
1947	2035
1963	2030
1989	2040
2020	2040
2030	2047
2026	2045
2035	2049
2056	2045
2058	2052
2049	2045
2056	2043
2078	2037
2075	2041
2066	2036
2060	2035
2073	2033
2072	2037
2073	2035
2078	2042
2076	2039
2075	2050
2071	2043
2077	2051
2091	2042
2093	2053
2087	2045
2078	2046
2091	2043
2095	2046
2091	2043
2089	2050
2097	2045
2106	2053
2098	2052
2091	2055
2106	2053
2113	2055
2093	2049
2086	2053
2101	2044
2103	2045
2097	2040
2093	2038
2096	2035
2093	2035
2069	2037
2061	2040
2064	2037
2054	2042
2037	2035
2029	2033
2039	2026
2034	2025
2016	2023
2006	2016
2014	2016
2008	2015
1993	2009
1994	2013
2015	2011
2005	2019
1985	2015
1987	2023
2007	2029
2010	2038
2001	2041
1986	2046
2004	2041
2009	2039
1998	2033
2007	2031
2018	2024
2023	2024
2011	2026
2003	2029
2017	2027
2013	2029
1999	2028
1998	2033
2013	2027
2021	2034
2008	2033
2003	2034
2017	2040
2017	2049
2010	2050
2000	2056
2018	2052
2029	2056
2017	2050
2003	2052
2015	2044
2018	2048
2009	2048
2006	2053
2030	2049
2029	2051
2017	2049
2004	2050
2011	2046
2016	2052
2007	2045
2013	2053
2030	2055
2025	2057
2013	2051
2016	2055
2024	2052
2021	2055
2015	2045
2016	2040
2033	2028
2033	2030
2020	2022
2013	2027
2031	2023
2027	2031
2015	2028
2015	2040
2032	2041
2036	2045
2021	2041
2025	2044
2037	2044
2033	2054
2027	2054
2033	2063
2057	2061
2064	2067
2050	2065
2038	2067
2061	2063
2063	2072
2056	2066
2053	2066
2057	2059
2059	2063
2045	2059
2038	2055
2046	2052
2039	2055
2025	2047
2027	2044
2049	2033
2047	2037
2037	2024
2027	2023
2031	2026
2029	2029
2024	2025
2018	2025
2037	2021
2048	2027
2047	2024
2061	2019
2121	2024
2166	2027
2164	2024
2111	2027
2068	2027
2032	2036
1978	2032
1925	2032
1930	2033
1954	2036
1963	2033
1976	2036
2011	2036
2030	2039
2029	2036
2023	2038
2045	2041
2059	2049
2056	2050
2056	2055
2065	2049
2059	2058
2054	2055
2057	2059
2073	2053
2069	2055
2054	2047
2051	2045
2068	2042
2073	2041
2065	2035
2059	2038
2078	2034
2079	2036
2071	2031
2062	2030
2068	2028
2080	2029
2082	2023
2073	2026
2091	2019
2087	2026
2085	2022
2079	2021
2093	2022
2103	2025
2091	2024
2088	2025
2097	2027
2099	2034
2093	2030
2081	2035
2092	2032
2089	2042
2073	2042
2057	2047
2061	2039
2061	2046
2046	2043
2033	2044
2047	2039
2042	2042
2024	2039
2011	2041
2019	2041
2015	2047
2003	2037
1999	2024
2011	2003
2014	1990
2005	1971
1993	1959
2013	1955
2017	1965
2011	1976
2005	1993
2019	2008
2014	2024
2004	2037
2005	2055
2017	2069
2023	2082
2013	2085
2002	2091
2011	2093
2024	2094
2013	2086
2011	2089
2026	2089
2036	2092
2027	2084
2018	2075
2032	2070
2031	2069
2015	2063
2003	2061
2020	2057
2029	2060
2022	2051
2018	2055
2029	2053
2024	2057
2014	2056
2013	2054
2030	2052
2030	2059
2021	2062
2019	2070
2035	2067
2028	2069
2012	2067
2013	2065
2031	2057
2043	2055
2031	2048
2015	2049
2021	2040
2027	2039
2030	2033
2025	2031
2031	2029
2039	2032
2029	2026
2023	2027
2044	2026
2050	2027
2038	2029
2019	2029
2031	2026
2037	2031
2032	2030
2029	2037
2039	2032
2043	2037
2027	2035
2025	2036
2038	2034
2046	2036
2037	2032
2037	2035
2058	2029
2065	2035
2053	2030
2045	2032
2070	2031
2067	2037
2061	2031
2057	2032
2072	2021
2066	2029
2039	2027
2030	2035
2037	2034
2041	2044
2033	2040
2026	2046
2045	2046
2043	2050
2025	2048
2024	2047
2034	2045
2029	2043
2027	2031
2029	2028
2051	2019
2095	2020
2129	2015
2163	2017
2158	2017
2091	2019
2021	2018
1975	2024
1937	2025
1925	2027
1932	2026
1955	2031
1999	2029
2019	2035
2028	2030
2032	2036
2044	2035
2046	2040
2045	2036
2040	2036
2065	2033
2071	2041
2065	2044
2053	2048
2069	2048
2069	2051
2054	2047
2055	2050
2069	2049
2075	2051
2066	2045
2058	2046
2070	2040
2090	2041
2081	2035
2067	2037
2080	2042
2089	2051
2085	2052
2081	2054
2103	2055
2104	2064
2094	2061
2080	2067
2097	2065
2103	2068
2095	2066
2096	2065
2103	2058
2104	2055
2099	2055
2091	2061
2102	2059
2100	2059
2092	2054
2077	2050
2080	2047
2079	2050
2063	2044
2046	2042
2051	2034
2047	2035
2033	2029
2017	2029
2022	2030
2023	2038
2008	2036
1988	2043
1999	2041
2005	2049
1999	2047
2001	2054
2005	2051
2009	2056
2003	2049
1987	2051
2002	2048
2016	2053
2010	2050
2014	2055
2024	2053
2016	2053
2009	2046
2006	2045
2017	2043
2019	2040
2013	2033
2007	2037
2021	2030
2018	2030
2013	2027
2018	2027
2027	2024
2031	2029
2021	2028
2018	2027
2032	2020
2037	2029
2021	2020
2015	2023
2029	2017
2032	2021
2013	2019
2008	2023
2029	2026
2033	2035
2023	2035
2018	2038
2030	2040
2037	2046
2036	2043
2033	2046
2040	2045
2038	2047
2031	2040
2027	2039
2038	2040
2045	2047
2033	2050
2020	2049
2037	2047
2039	2048
2034	2046
2022	2047
2037	2042
2043	2044
2035	2038
2035	2044
2053	2043
2058	2051
2047	2053
2038	2054
2041	2046
2046	2047
2042	2036
2036	2035
2051	2029
2058	2035
2058	2027
2056	2029
2060	2024
2071	2030
2062	2028
2059	2035
2068	2033
2072	2041
2055	2043
2030	2043
2042	2036
2047	2039
2045	2035
2026	2035
2036	2032
2034	2036
2027	2031
2016	2034
2038	2032
2035	2035
2034	2038
2035	2043
2059	2044
2095	2049
2133	2046
2160	2048
2175	2045
2123	2049
2055	2048
2019	2051
1984	2052
1944	2053
1934	2050
1948	2054
1987	2050
2013	2048
2024	2046
2026	2043
2040	2043
2050	2046
2055	2049
2053	2055
2066	2052
2068	2052
2064	2048
2059	2047
2078	2043
2082	2042
2073	2033
2062	2038
2078	2042
2087	2043
2078	2042
2072	2048
2089	2047
2099	2050
2089	2049
2079	2050
2084	2047
2093	2053
2091	2053
2087	2054
2101	2050
2105	2055
2096	2050
2083	2051
2098	2052
2105	2052
2097	2046
2092	2045
2100	2040
2113	2041
2113	2032
2098	2025
2100	2023
2102	2030
2094	2030
2082	2029
2081	2031
2088	2033
2075	2036
2061	2039
2065	2043
2064	2050
2034	2047
2017	2046
2024	2048
2020	2051
2009	2046
1995	2041
2001	2038
1997	2040
1986	2033
1980	2033
1994	2031
2001	2038
2001	2034
1981	2039
1991	2036
2001	2037
1996	2034
1993	2033
2006	2028
2014	2031
2009	2024
1998	2027
2011	2025
2021	2029
2018	2033
2003	2040
2013	2042
2015	2045
2010	2044
2009	2041
2022	2038
2029	2041
2016	2032
1995	2033
2003	2028
2015	2031
2011	2032
2003	2035
2017	2036
2027	2046
2019	2047
2009	2048
2012	2048
2020	2055
2011	2056
2002	2059
2019	2057
2022	2061
2014	2057
2009	2058
2012	2053
2018	2053
2015	2048
2011	2045
2024	2040
2036	2044
2029	2038
2023	2037
2033	2035
2032	2038
2021	2035
2015	2036
2033	2036
2045	2040
2039	2036
2023	2035
2032	2034
2048	2035
2045	2032
2034	2032
2049	2029
2053	2035
2046	2039
2045	2040
2051	2041
2064	2049
2045	2046
2037	2048
2054	2045
2071	2053
2067	2052
2063	2053
2073	2052
2083	2056
2076	2056
2064	2053
2064	2050
2064	2047
2045	2045
2036	2040
2050	2037
2053	2037
2041	2034
2034	2030
2040	2024
2047	2024
2033	2022
2017	2024
2032	2027
2039	2029
2039	2028
2044	2031
2085	2036
2120	2045
2151	2045
2162	2049
2146	2042
2087	2044
2041	2042
2000	2041
1953	2039
1937	2040
1940	2044
1951	2043
1988	2042
2015	2047
2017	2046
2021	2052
2042	2047
2060	2052
2049	2047
2041	2045
2054	2040
2064	2041
2064	2037
2067	2039
2077	2039
2085	2039
2077	2039
2061	2039
2070	2037
2079	2041
2072	2037
2066	2037
2079	2032
2085	2035
2083	2034
2079	2037
2089	2037
2087	2040
2077	2040
2082	2040
2097	2040
2102	2043
2093	2038
2081	2041
2098	2040
2114	2042
2102	2038
2090	2033
2101	2037
2108	2039
2104	2034
2088	2042
2090	2039
2090	2043
2092	2042
2081	2043
2087	2049
2087	2055
2060	2052
2047	2052
2049	2048
2047	2055
2035	2053
2007	2053
2011	2052
2014	2050
2003	2047
1990	2042
1995	2036
1999	2033
1997	2025
1991	2022
1999	2022
2008	2026
1999	2025
1991	2030
2008	2029
2010	2037
2001	2041
1995	2043
2006	2041
2019	2044
2014	2046
2000	2046
2010	2043
2018	2044
2011	2045
2007	2046
2019	2044
2029	2045
2026	2046
2017	2045
2025	2045
2032	2049
2018	2048
2011	2053
2017	2053
2033	2053
2033	2053
2015	2050
2018	2044
2031	2039
2029	2035
2013	2029
2023	2025
2031	2023
2029	2015
2020	2010
2031	2004
2038	2002
2036	1996
2027	1991
2026	1992
2037	1996
2035	1999
2029	2005
2035	2013
2041	2025
2033	2028
2024	2035
2034	2048
2046	2058
2040	2059
2031	2065
2034	2068
2046	2071
2038	2065
2026	2068
2033	2062
2036	2060
2027	2052
2019	2051
2031	2048
2036	2049
2034	2047
2029	2048
2037	2045
2045	2045
2036	2042
2031	2043
2041	2043
2053	2046
2049	2044
2041	2040
2057	2037
2067	2040
2055	2034
2050	2031
2058	2029
2071	2034
2061	2040
2049	2043
2056	2048
2049	2051
2036	2052
2034	2050
2045	2048
2043	2053
2033	2051
2027	2047
2032	2041
2041	2039
2031	2031
2021	2031
2053	2026
2100	2024
2115	2019
2049	2016
2080	2014
2123	2018
2133	2021
2083	2023
2059	2028
2056	2033
1987	2034
1881	2034
1881	2036
1924	2043
1939	2046
1954	2051
1991	2048
2031	2045
2056	2040
2072	2038
2104	2038
2143	2041
2144	2037
2129	2031
2127	2031
2139	2034
2160	2031
2183	2031
2196	2036
2194	2039
2181	2042
2155	2042
2175	2042
2188	2046
2207	2040
2215	2038
2222	2029
2230	2023
2232	2022
2251	2022
2289	2024
2313	2027
2336	2026
2356	2029
2373	2029
2401	2033
2403	2034
2426	2034
2497	2032
2558	2031
2599	2026
2683	2020
2783	2014
2885	2018
2974	2016
3073	2012
3175	2009
3231	2013
3228	2012
3281	2012
3333	2012
3329	2016
3343	2016
3369	2018
3380	2020
3361	2027
3345	2029
3345	2034
3333	2032
3298	2041
3275	2041
3264	2043
3245	2040
3217	2046
3205	2044
3211	2043
3214	2042
3185	2041
3145	2041
3120	2040
3090	2038
3057	2036
3023	2032
3013	2027
3021	2028
2981	2027
2924	2022
2913	2021
2902	2019
2866	2019
2826	2014
2805	2017
2779	2021
2738	2025
2702	2025
2705	2034
2697	2043
2688	2050
2664	2049
2651	2052
2609	2052
2542	2053
2502	2050
2492	2051
2473	2048
2419	2045
2399	2042
2399	2041
2394	2039
2362	2041
2367	2038
2395	2040
2334	2042
2270	2043
2268	2039
2279	2039
2225	2037
2185	2037
2162	2031
2158	2030
2140	2020
2114	2013
2103	2002
2127	1996
2109	1995
2075	2003
2062	2005
2057	2001
2037	2005
2006	2007
2007	2013
2000	2015
1999	2019
1966	2021
1954	2019
1969	2012
1978	2010
1951	2010
1934	2012
1934	2010
1931	2011
1914	2012
1907	2016
1893	2018
1888	2020
1893	2028
1900	2037
1909	2041
1902	2049
1872	2056
1839	2059
1825	2060
1816	2059
1797	2062
1811	2062
1850	2059
1857	2053
1830	2050
1830	2046
1840	2048
1856	2051
1837	2057
1830	2061
1835	2061
1856	2058
1908	2056
1933	2056
1886	2056
1792	2055
1743	2061
1699	2057
1655	2057
1651	2053
1689	2050
1715	2046
1710	2041
1708	2043
1743	2046
1771	2043
1777	2045
1747	2049
1719	2052
1716	2048
1696	2049
1646	2046
1597	2047
1553	2046
1515	2043
1476	2039
1423	2040
1362	2041
1331	2038
1301	2035
1257	2035
1213	2034
1198	2033
1167	2036
1128	2041
1092	2042
1076	2039
1066	2039
1040	2034
1016	2026
1013	2023
1009	2022
1001	2022
994	2022
1001	2024
996	2026
995	2034
997	2034
1001	2039
1013	2042
1018	2050
1011	2053
1018	2062
1038	2066
1042	2073
1029	2080
1047	2083
1073	2083
1076	2087
1058	2082
1057	2076
1062	2068
1066	2065
1061	2057
1072	2054
1085	2053
1089	2049
1088	2050
1097	2046
1118	2048
1136	2056
1150	2056
1167	2057
1181	2058
1183	2059
1185	2060
1206	2061
1233	2066
1242	2069
1254	2066
1276	2063
1303	2057
1320	2057
1329	2055
1343	2055
1367	2052
1396	2056
1403	2055
1405	2058
1432	2055
1454	2054
1468	2057
1486	2053
1513	2055
1527	2057
1531	2057
1552	2053
1577	2053
1591	2062
1587	2059
1588	2057
1607	2058
1634	2059
1645	2056
1649	2054
1665	2056
1670	2054
1682	2055
1696	2055
1714	2057
1732	2054
1737	2058
1748	2061
1771	2064
1789	2065
1793	2066
1798	2068
1810	2071
1811	2067
1819	2063
1842	2062
1863	2063
1879	2062
1881	2057
1890	2053
1904	2049
1911	2045
1906	2043
1917	2038
1927	2036
1941	2033
1946	2027
1950	2024
1978	2022
1990	2019
1977	2014
1973	2009
1991	2011
2009	2010
2015	2013
2014	2010
2031	2015
2050	2018
2051	2022
2053	2027
2068	2035
2075	2045
2057	2051
2049	2057
2055	2061
2067	2063
2064	2060
2056	2056
2067	2059
2090	2062
2090	2060
2083	2061
2090	2059
2104	2058
2113	2054
2129	2049
2167	2046
2225	2048
2248	2043
2243	2036
2198	2034
2145	2032
2108	2026
2067	2020
2032	2020
2032	2016
2049	2017
2080	2020
2119	2021
2141	2012
2148	2000
2155	1986
2169	1967
2181	1958
2185	1961
2184	1971
2191	1988
2199	2003
2196	2021
2191	2028
2207	2036
2215	2049
2206	2054
2204	2063
2212	2065
2211	2064
2209	2064
2211	2063
2237	2063
2241	2065
2225	2069
2219	2063
2241	2060
2240	2055
2230	2052
2229	2054
2237	2058
2234	2058
2238	2061
2245	2061
2257	2057
2259	2056
2253	2057
2249	2052
2263	2050
2271	2048
2267	2048
2251	2049
2249	2049
2247	2046
2239	2041
2227	2040
2229	2041
2223	2040
2214	2036
2203	2028
2195	2026
2191	2024
2172	2022
2154	2017
2147	2020
2142	2021
2138	2022
2128	2019
2129	2021
2136	2025
2133	2028
2132	2026
2141	2030
2148	2035
2134	2036
2124	2036
2139	2039
2147	2044
2142	2052
2140	2058
2141	2063
2141	2066
2135	2066
2134	2064
2138	2069
2150	2066
2138	2070
2129	2063
2138	2055
2147	2048
2129	2039
2120	2033
2127	2026
2134	2019
2127	2012
2119	2005
2129	2002
2133	1999
2122	1997
2124	1990
2135	1995
2138	1996
2127	1999
2116	2001
2122	2009
2127	2016
2123	2025
2117	2029
2120	2033
2127	2041
2115	2040
2114	2042
2123	2043
2123	2046
2109	2049
2107	2047
2112	2051
2123	2053
2109	2053
2106	2054
2109	2049
2115	2050
2105	2052
2101	2051
2109	2051
2116	2050
2096	2046
2089	2043
2108	2045
2101	2045
2094	2047
2098	2045
2104	2045
2113	2044
2108	2048
2109	2049
2125	2050
2121	2050
2114	2050
2100	2047
2119	2046
2121	2048
2106	2047
2105	2042
2109	2038
2104	2037
2087	2033
2087	2035
2096	2039
2088	2043
2083	2048
2080	2049
2088	2048
2093	2047
2087	2048
2069	2045
2075	2048
2076	2049
2070	2055
2085	2055
2117	2058
2164	2062
2205	2055
2199	2047
2162	2043
2104	2035
2060	2030
2017	2026
1977	2023
1971	2024
1974	2027
2002	2028
2037	2035
2060	2038
2073	2050
2081	2053
2089	2056
2095	2054
2095	2056
2095	2051
2104	2048
2110	2050
2105	2051
2093	2044
2107	2040
2109	2042
2107	2042
2106	2038
2112	2040
2112	2041
2098	2041
2100	2040
2112	2042
2117	2041
2112	2041
2113	2040
2119	2040
2128	2038
2127	2038
2120	2035
2135	2037
2141	2038
2123	2042
2118	2039
2129	2040
2138	2041
2137	2043
2133	2044
2137	2043
2137	2047
2131	2049
2125	2046
2129	2046
2137	2052
2119	2056
2104	2052
2106	2049
2105	2051
2085	2045
2082	2036
2089	2028
2076	2019
2047	2018
2038	2007
2041	2002
2046	1997
2036	2001
2026	2001
2039	2005
2034	2005
2014	2010
2008	2009
2022	2011
2037	2013
2033	2019
2029	2018
2035	2018
2034	2021
2031	2024
2029	2023
2042	2021
2049	2021
2041	2024
2035	2019
2042	2022
2051	2019
2045	2024
2038	2026
2041	2033
2044	2042
2039	2050
2041	2055
2054	2059
2062	2065
2057	2066
2049	2064
2061	2063
2072	2059
2064	2059
2052	2054
2059	2051
2069	2054
2062	2053
2051	2048
2055	2046
2062	2041
2057	2037
2055	2030
2066	2024
2074	2023
2062	2020
2061	2015
2066	2015
2069	2012
2065	2012
2050	2007
2051	2008
2054	2013
2047	2020
2046	2023
2045	2029
2050	2036
2051	2042
2049	2043
2062	2044
2063	2049
2054	2052
2049	2056
2057	2059
2065	2059
2064	2063
2059	2060
2063	2059
2069	2059
2057	2056
2054	2056
2056	2057
2072	2056
2067	2060
2058	2061
2063	2063
2071	2064
2066	2065
2054	2058
2044	2053
2044	2047
2041	2046
2035	2042
2028	2041
2028	2039
2026	2040
2022	2040
2031	2044
2035	2042
2024	2045
2017	2045
2013	2043
2023	2040
2045	2036
2057	2032
2118	2029
2158	2026
2148	2024
2086	2019
2038	2018
1999	2014
1946	2018
1899	2014
1909	2018
1947	2019
1974	2027
1996	2027
2012	2030
2027	2035
2037	2039
2035	2039
2050	2038
2061	2043
2058	2045
2056	2042
2062	2044
2076	2046
2074	2051
2063	2048
2065	2052
2065	2051
2059	2044
2055	2037
2066	2031
2077	2029
2065	2029
2050	2023
2063	2021
2079	2019
2075	2019
2077	2019
2082	2021
2087	2022
2085	2022
2085	2020
2092	2023
2103	2023
2099	2027
2100	2029
2099	2032
2112	2037
2105	2036
2100	2031
2107	2019
2115	2006
2108	1995
2097	1983
2100	1979
2098	1976
2089	1980
2073	1978
2075	1981
2077	1984
2055	1988
2037	1987
2025	1991
2031	1992
2022	1996
2008	1995
2014	2002
2012	2009
2007	2018
1993	2021
2002	2032
2009	2040
2004	2052
2005	2053
2005	2054
2010	2053
2007	2052
1997	2046
2005	2044
2023	2044
2014	2043
2008	2036
2011	2039
2018	2040
2018	2042
2010	2039
2012	2040
2027	2042
2024	2045
2018	2040
2025	2039
2028	2037
2027	2038
2024	2033
2023	2035
2026	2041
2022	2046
2015	2049
2022	2054
2030	2059
2027	2063
2021	2061
2027	2063
2037	2061
2033	2060
2028	2054
2029	2045
2031	2039
2031	2040
2025	2032
2032	2031
2043	2029
2029	2033
2023	2026
2028	2028
2043	2026
2025	2033
2015	2030
2025	2035
2033	2035
2037	2038
2035	2038
2036	2041
2040	2044
2042	2048
2039	2044
2046	2046
2053	2043
2050	2048
2039	2043
2053	2041
2062	2044
2053	2047
2053	2043
2065	2041
2075	2038
2061	2040
2039	2029
2035	2025
2042	2025
2043	2030
2041	2025
2043	2024
2044	2026
2045	2033
2035	2031
2029	2032
2037	2031
2032	2034
2032	2031
2052	2033
2083	2040
2115	2044
2146	2040
2161	2040
2109	2044
2034	2046
1999	2038
1961	2038
1927	2031
1912	2033
1947	2029
1987	2027
2013	2028
2015	2030
2026	2025
2039	2031
2044	2035
2053	2041
2048	2043
2053	2048
2064	2050
2061	2048
2060	2047
2069	2052
2074	2059
2065	2072
2063	2077
2070	2085
2080	2096
2080	2105
2069	2108
2071	2112
2077	2114
2067	2117
2072	2109
2079	2109
2084	2105
2081	2102
2074	2091
2080	2084
2089	2075
2086	2068
2085	2056
2089	2049
2102	2041
2101	2033
2098	2023
2113	2017
2119	2014
2108	2016
2105	2012
2110	2011
2116	2011
2103	2011
2093	2009
2081	2015
2079	2017
2073	2025
2054	2027
2046	2031
2040	2037
2031	2041
2017	2045
2014	2050
2015	2052
2012	2060
2004	2054
2002	2057
2000	2056
2000	2059
1995	2053
1999	2051
2004	2050
2001	2052
1993	2051
2002	2056
2013	2057
2012	2059
2004	2054
2013	2054
2020	2052
2015	2056
2015	2052
2019	2056
2026	2058
2027	2061
2019	2060
2024	2059
2019	2054
2017	2054
2025	2050
2035	2048
2035	2048
2028	2052
2015	2051
2019	2051
2031	2052
2037	2054
2029	2053
2031	2051
2030	2046
2026	2049
2025	2048
2040	2049
2042	2050
2032	2048
2027	2043
2028	2042
2036	2038
2036	2036
2025	2034
2026	2032
2031	2032
2029	2033
2033	2035
2030	2031
2035	2026
2026	2027
2023	2020
2034	2020
2041	2019
2037	2022
2029	2031
2030	2037
2038	2042
2046	2048
2034	2050
2034	2053
2040	2049
2044	2046
2034	2042
2038	2041
2051	2042
2045	2047
2043	2043
2051	2045
2069	2051
2063	2057
2051	2057
2057	2053
2068	2053
2053	2054
2030	2047
2029	2042
2033	2041
2028	2044
2022	2036
2027	2036
2037	2030
2040	2034
2039	2032
2029	2030
2027	2031
2024	2041
2018	2043
2023	2046
2039	2047
2052	2048
2068	2047
2119	2049
2155	2047
2149	2047
2086	2046
2042	2045
2021	2041
1968	2043
1912	2031
1920	2029
1957	2033
1981	2036
2000	2035
2016	2035
2027	2037
2028	2041
2033	2034
2048	2033
2054	2035
2055	2032
2046	2025
2045	2026
2060	2025
2060	2036
2049	2039
2050	2043
2059	2047
2062	2051
2059	2045
2067	2047
2072	2045
2073	2046
2070	2047
2076	2049
2083	2053
2078	2058
2075	2057
2085	2058
2087	2055
2071	2051
2072	2048
2074	2045
2094	2042
2093	2039
2083	2035
2087	2037
2108	2041
2118	2045
2109	2046
2105	2046
2103	2043
2088	2044
2085	2039
2083	2046
2089	2038
2083	2042
2071	2037
2063	2036
2052	2034
2038	2043
2028	2041
2027	2040
2029	2035
2015	2042
2001	2037
1993	2042
2000	2043
2001	2048
1992	2042
1989	2041
2001	2039
2003	2039
2002	2033
2003	2033
2002	2028
1999	2033
1995	2033
2000	2036
2007	2035
2005	2035
2013	2032
2014	2033
2013	2033
2008	2034
2012	2031
2020	2032
2037	2033
2027	2040
2010	2037
2013	2038
2028	2043
2029	2051
2026	2051
2030	2051
2030	2055
2019	2056
2011	2056
2020	2053
2046	2053
2044	2056
2027	2051
2025	2050
2025	2051
2026	2051
2026	2051
2026	2051
2030	2046
2029	2045
2027	2042
2027	2043
2037	2042
2035	2038
2032	2033
2034	2033
2040	2027
2038	2027
2028	2026
2029	2027
2037	2029
2033	2032
2027	2034
2038	2033
2045	2029
2043	2026
2039	2026
2036	2022
2046	2024
2040	2029
2037	2028
2043	2031
2051	2030
2043	2038
2032	2040
2036	2044
2051	2044
2047	2040
2044	2034
2046	2034
2063	2038
2064	2046
2060	2050
2058	2049
2071	2049
2065	2050
2056	2044
2073	2048
2086	2050
2066	2052
2051	2049
2046	2045
2047	2038
2049	2036
2038	2037
2043	2035
2058	2036
2050	2040
2040	2035
2035	2038
2038	2037
2037	2045
2032	2043
2043	2050
2064	2049
2072	2050
2089	2047
2141	2046
2178	2043
2155	2048
2086	2043
2038	2044
2019	2036
1955	2035
1918	2033
1927	2032
1963	2031
1995	2034
2001	2042
2012	2042
2036	2043
2033	2044
2033	2041
2039	2041
2053	2037
2054	2041
2051	2039
2054	2040
2073	2040
2065	2044
2057	2039
2059	2040
2075	2039
2072	2042
2067	2039
2067	2037
2075	2033
2074	2038
2077	2040
2082	2043
2095	2043
2095	2050
2081	2050
2080	2053
2086	2053
2091	2055
2091	2055
2101	2052
2107	2055
2107	2062
2099	2064
2101	2071
2114	2070
2116	2071
2107	2068
2096	2066
2102	2061
2098	2058
2087	2054
2081	2053
2076	2047
2079	2048
2062	2042
2057	2040
2058	2038
2042	2041
2035	2034
2024	2034
2020	2037
2009	2042
1988	2038
1986	2037
1990	2031
1988	2035
1987	2039
1993	2040
1995	2045
1989	2052
1982	2047
1995	2051
2013	2049
1999	2044
1980	2040
1985	2044
2004	2041
2003	2042
1996	2044
1998	2044
2010	2045
2007	2042
2006	2037
2009	2041
2013	2041
2009	2041
2010	2036
2012	2038
2021	2035
2009	2036
2008	2033
2011	2027
2021	2025
2021	2023
2015	2019
2011	2021
2031	2027
2033	2027
2017	2026
2014	2029
2015	2029
2010	2036
2012	2039
2017	2040
2026	2039
2020	2044
2017	2045
2016	2045
2025	2045
2020	2050
2020	2049
2023	2049
2035	2053
2031	2054
2025	2050
2031	2050
2043	2054
2033	2054
2021	2054
2016	2053
2025	2053
2024	2051
2016	2047
2015	2044
2028	2037
2040	2033
2035	2027
2023	2027
2034	2030
2037	2033
2030	2031
2035	2032
2043	2033
2034	2034
2024	2039
2030	2038
2056	2041
2059	2044
2056	2035
2052	2034
2047	2032
2041	2037
2043	2033
2051	2032
2062	2031
2059	2036
2061	2037
2069	2034
2073	2031
2059	2035
2051	2033
2048	2035
2046	2036
2048	2035
2040	2039
2034	2041
2042	2043
2039	2043
2033	2035
2031	2034
2040	2033
2035	2028
2027	2022
2030	2021
2050	2011
2061	2015
2072	2010
2115	2012
2150	2013
2147	2013
2083	2014
2029	2020
2006	2022
1958	2028
1917	2027
1923	2031
1956	2030
1985	2031
1999	2029
2021	2029
2045	2030
2047	2036
2052	2037
2056	2040
2064	2041
2054	2040
2053	2034
2056	2029
2071	2031
2068	2034
2070	2029
2077	2033
2082	2030
2079	2037
2075	2036
2069	2036
2073	2036
2071	2039
2079	2042
2089	2041
2097	2043
2095	2048
2089	2052
2085	2052
2093	2052
2093	2056
2090	2049
2094	2046
2119	2043
2120	2045
2103	2043
2107	2048
2118	2047
2116	2048
2112	2043
2106	2041
2113	2038
2115	2043
2109	2047
2105	2051
2100	2053
2094	2057
2081	2056
2071	2053
2071	2052
2064	2049
2044	2047
2029	2043
2035	2039
2026	2040
2013	2039
2005	2033
2011	2037
2011	2040
2003	2041
2003	2040
2009	2041
2008	2041
2019	2036
2017	2039
2015	2035
2012	2036
2009	2032
2018	2032
2022	2031
2019	2031
2018	2028
2012	2024
2019	2023
2021	2024
2017	2019
2012	2013
2028	2013
2028	2015
2026	2017
2024	2020
2035	2022
2030	2028
2020	2030
2018	2035
2031	2037
2028	2045
2027	2053
2018	2055
2023	2060
2027	2065
2026	2067
2032	2068
2036	2069
2027	2068
2020	2068
2030	2070
2037	2067
2034	2068
2025	2069
2019	2070
2040	2067
2035	2067
2031	2061
2024	2059
2031	2056
2032	2048
2023	2044
2025	2043
2032	2043
2034	2049
2021	2043
2021	2041
2028	2042
2033	2042
2027	2037
2026	2038
2035	2037
2039	2040
2034	2039
2034	2040
2051	2036
2043	2040
2029	2039
2031	2038
2049	2043
2046	2043
2037	2043
2040	2045
2052	2043
2047	2044
2043	2038
2051	2033
2070	2035
2070	2039
2056	2037
2052	2038
2059	2035
2053	2034
2035	2032
2029	2031
2032	2035
2031	2029
2034	2031
2031	2032
2040	2034
2043	2038
2037	2039
2035	2042
2034	2049
2031	2051
2031	2049
2044	2048
2071	2044
2100	2044
2130	2040
2141	2039
2121	2035
2057	2035
2011	2035
1966	2034
1931	2036
1910	2033
1929	2033
1959	2032
1999	2036
2021	2039
2031	2037
2031	2041
2045	2047
2049	2053
2043	2053
2046	2047
2064	2046
2065	2047
2065	2049
2068	2054
2085	2053
2088	2060
2079	2061
2078	2063
2077	2062
2080	2065
2076	2061
2073	2056
2083	2051
2087	2051
2077	2041
2081	2037
2096	2030
2096	2030
2093	2021
2094	2017
2107	2018
2103	2021
2093	2019
2090	2022
2109	2020
2117	2023
2107	2023
2100	2024
2103	2029
2103	2036
2102	2039
2109	2043
2109	2048
2102	2048
2093	2049
2093	2050
2099	2052
2085	2052
2061	2048
2045	2043
2055	2042
2048	2045
2032	2043
2019	2037
2019	2036
2007	2034
2005	2032
2004	2030
2009	2033
2006	2035
1999	2032
1998	2034
1999	2035
2000	2038
2000	2038
2002	2042
2019	2039
2006	2045
2001	2041
2017	2043
2025	2041
2030	2044
2018	2041
2007	2043
2016	2047
2021	2048
2018	2047
2023	2046
2030	2048
2027	2049
2013	2048
2011	2048
2018	2052
2021	2051
2014	2046
2015	2047
2023	2043
2017	2040
2015	2034
2013	2031
2027	2033
2025	2036
2013	2037
2009	2038
2033	2040
2038	2045
2024	2045
2021	2050
2027	2054
2029	2054
2027	2053
2027	2054
2031	2053
2029	2048
2025	2046
2029	2039
2035	2034
2028	2031
2023	2037
2023	2037
2033	2036
2033	2043
2023	2041
2029	2040
2034	2039
2032	2037
2031	2036
2030	2036
2036	2036
2036	2039
2037	2043
2037	2046
2043	2050
2037	2056
2027	2062
2029	2064
2044	2067
2042	2068
2039	2061
2034	2054
2038	2046
2041	2043
2043	2037
2050	2036
2056	2037
2054	2034
2049	2028
2056	2024
2058	2025
2051	2027
2051	2029
2050	2025
2066	2027
2059	2029
2050	2027
2049	2028
2050	2033
2045	2032
2030	2028
2030	2020
2034	2021
2032	2023
2025	2025
2027	2028
2037	2033
2033	2037
2029	2035
2025	2033
2039	2031
2055	2030
2058	2029
2091	2030
2139	2034
2148	2035
2106	2037
2051	2039
2029	2040
2002	2042
1941	2044
1917	2042
1939	2043
1969	2050
1991	2049
2006	2042
2031	2039
2038	2037
2033	2033
2030	2032
2042	2027
2047	2026
2048	2025
2047	2022
2053	2017
2057	2023
2060	2026
2056	2029
2065	2035
2069	2048
2066	2053
2066	2056
2069	2062
2067	2065
2061	2068
2063	2068
2082	2070
2081	2073
2065	2073
2065	2073
2075	2068
2081	2065
2071	2061
2079	2058
2089	2053
2087	2050
2082	2043
2079	2040
2103	2038
2105	2037
2093	2034
2090	2032
2098	2034
2097	2039
2086	2039
2085	2038
2091	2039
2093	2041
2083	2043
2071	2044
2073	2043
2067	2046
2043	2044
2031	2046
2027	2043
2019	2044
2010	2043
2003	2038
1996	2039
2002	2042
2001	2043
2006	2044
2014	2046
2017	2049
2010	2051
2002	2045
2006	2042
2011	2034
2010	2025
2003	2018
2007	2013
2012	2013
2013	2011
2019	2012
2027	2016
2024	2023
2017	2022
2019	2021
2027	2021
2033	2028
2021	2029
2024	2032
2027	2038
2032	2037
2033	2042
2023	2043
2034	2044
2033	2050
2023	2049
2020	2049
2025	2051
2029	2052
2023	2052
2026	2051
2039	2049
2033	2047
2021	2051
2021	2046
2032	2048
2031	2049
2021	2050
2015	2048
2025	2046
2021	2046
2023	2047
2031	2044
2037	2045
2048	2042
2035	2044
2020	2040
2025	2037
2034	2041
2033	2043
2033	2044
2036	2045
2037	2044
2027	2042
2025	2034
2036	2029
2041	2029
2031	2026
2029	2028
2030	2034
2033	2037
2031	2041
2029	2040
2038	2040
2044	2038
2039	2035
2035	2033
2043	2036
2043	2035
2037	2036
2037	2041
2047	2044
2043	2047
2035	2051
2041	2049
2045	2047
2051	2048
2050	2043
2053	2037
2066	2035
2062	2035
2046	2036
2051	2033
2067	2037
2071	2043
2065	2043
2052	2042
2056	2042
2047	2043
2031	2042
2033	2044
2051	2044
2053	2046
2047	2047
2046	2046
2051	2051
2042	2054
2032	2048
2023	2046
2029	2042
2045	2039
2040	2039
2060	2034
2106	2035
2149	2041
2153	2045
2122	2045
2064	2044
2030	2044
1997	2042
1950	2042
1929	2044
1934	2040
1948	2034
1983	2028
2006	2027
2021	2025
2025	2025
2014	2025
2029	2027
2049	2026
2047	2030
2045	2030
2051	2032
2053	2041
2053	2046
2058	2045
2063	2052
2063	2058
2059	2055
2058	2058
2070	2060
2067	2062
2062	2061
2055	2055
2067	2052
2075	2050
2073	2044
2071	2042
2087	2037
2091	2032
2073	2031
2073	2023
2084	2021
2088	2022
2084	2025
2086	2028
2092	2028
2089	2032
2083	2033
2084	2037
2099	2043
2096	2042
2095	2041
2089	2041
2097	2043
2093	2044
2085	2043
2076	2038
2076	2040
2071	2040
2051	2042
2036	2046
2040	2044
2037	2045
2022	2046
2018	2039
2015	2040
2011	2042
2004	2041
2000	2039
2013	2037
2012	2040
2002	2040
1999	2043
2010	2043
2007	2047
2004	2046
2001	2045
2016	2044
2017	2042
2010	2043
2014	2039
2014	2036
2005	2039
2004	2036
2005	2031
2014	2029
2015	2030
2012	2033
2016	2029
2025	2030
2025	2029
2021	2032
2017	2038
2035	2042
2036	2042
2029	2046
2024	2043
2031	2043
2033	2051
2027	2053
2021	2055
2027	2057
2035	2057
2025	2059
2025	2059
2032	2055
2034	2053
2026	2049
2021	2043
2027	2045
2021	2041
2023	2036
2023	2036
2029	2031
2031	2028
2033	2028
2029	2028
2035	2029
2033	2031
2029	2028
2033	2030
2037	2031
2032	2031
2024	2031
2023	2028
2035	2026
2051	2027
2040	2027
2028	2032
2035	2034
2034	2039
2027	2045
2023	2045
2035	2043
2037	2045
2034	2049
2023	2047
2033	2047
2045	2051
2040	2050
2034	2048
2050	2050
2049	2046
2041	2043
2045	2037
2054	2038
2053	2040
2045	2041
2042	2031
2051	2033
2055	2032
2050	2033
2051	2031
2068	2038
2070	2044
2061	2047
2043	2048
2039	2050
2038	2051
2041	2057
2032	2057
2040	2059
2046	2063
2032	2064
2031	2060
2036	2068
2040	2064
2024	2064
2014	2060
2034	2057
2050	2052
2064	2051
2083	2041
2132	2039
2157	2036
2114	2039
2040	2041
2009	2037
1969	2037
1919	2033
1913	2030
1945	2028
1978	2029
1985	2029
1993	2023
2011	2023
2031	2022
2031	2024
2033	2025
2050	2025
2058	2029
2059	2030
2053	2031
2056	2026
2067	2027
2065	2033
2063	2033
2070	2036
2077	2040
2068	2043
2062	2043
2070	2045
2070	2045
2068	2043
2070	2039
2087	2041
2086	2041
2084	2039
2080	2044
2091	2044
2095	2046
2089	2051
2085	2045
2097	2048
2097	2045
2098	2049
2098	2042
2114	2045
2118	2044
2116	2044
2109	2039
2116	2040
2117	2035
2104	2035
2091	2027
2095	2028
2096	2030
2084	2023
2071	2025
2075	2026
2061	2025
2051	2027
2030	2026
2025	2031
2025	2037
2022	2041
2017	2041
2018	2043
2013	2045
2003	2053
1996	2046
2008	2043
2010	2041
2008	2042
2011	2042
2015	2045
2007	2050
1997	2047
1997	2043
2006	2042
2013	2038
2013	2038
2008	2035
2015	2041
2019	2044
2013	2057
2010	2060
2018	2061
2021	2053
2014	2049
2011	2045
2019	2041
2023	2036
2025	2027
2023	2014
2026	2011
2019	2005
2016	2008
2022	2003
2029	2012
2031	2018
2024	2022
2012	2023
2015	2031
2031	2038
2031	2051
2029	2061
2029	2073
2035	2073
2036	2074
2033	2069
2027	2067
2031	2062
2025	2061
2019	2055
2033	2053
2042	2047
2033	2043
2029	2038
2035	2036
2039	2027
2029	2028
2031	2020
2042	2022
2045	2023
2041	2026
2037	2024
2045	2028
2041	2034
2032	2037
2027	2036
2033	2039
2035	2040
2031	2047
2029	2045
2042	2053
2050	2053
2054	2058
2041	2053
2043	2045
2056	2038
2056	2035
2055	2030
2064	2033
2066	2037
2064	2041
2063	2043
2073	2047
2073	2053
2057	2062
2037	2066
2048	2073
2056	2076
2053	2073
2046	2070
2049	2067
2049	2066
2047	2063
2044	2049
2044	2043
2049	2040
2037	2046
2032	2039
2045	2041
2077	2040
2114	2044
2149	2044
2161	2043
2123	2044
2052	2042
2015	2036
1990	2035
1949	2035
1927	2033
1942	2028
1983	2023
2009	2023
2015	2026
2027	2029
2047	2029
2059	2031
2055	2036
2053	2036
2057	2041
2065	2042
2070	2048
2058	2044
2064	2046
2068	2037
2063	2043
2062	2038
2076	2035
2081	2036
2071	2035
2062	2037
2069	2043
2076	2045
2066	2046
2069	2044
2079	2043
2091	2042
2089	2043
2082	2039
2085	2045
2085	2040
2079	2040
2076	2035
2089	2037
2089	2037
2087	2038
2093	2037
2104	2039
2103	2040
2093	2042
2094	2038
2101	2033
2100	2027
2097	2029
2086	2032
2088	2028
2081	2022
2069	2027
2062	2023
2053	2026
2042	2025
2031	2028
2026	2030
2022	2032
2018	2031
2003	2035
1996	2033
2003	2037
2009	2038
2003	2041
1996	2041
2007	2041
2007	2039
2001	2040
1999	2037
2005	2039
2016	2043
2013	2047
2007	2047
2019	2054
2023	2052
2014	2058
2009	2054
2027	2060
2030	2058
2023	2058
2016	2052
2018	2046
2015	2038
2017	2034
2019	2028
2020	2025
2020	2022
2022	2025
2027	2025
2030	2025
2032	2021
2033	2018
2026	2015
2030	2019
2031	2022
2023	2034
2015	2037
2028	2048
2035	2049
2033	2054
2027	2050
2037	2056
2042	2053
2042	2051
2030	2049
2027	2050
2034	2053
2038	2059
2031	2057
2033	2058
2043	2056
2039	2054
2043	2050
2043	2051
2045	2049
2039	2053
2036	2048
2045	2045
2049	2040
2049	2043
2041	2039
2033	2029
2041	2027
2039	2027
2033	2023
2039	2022
2050	2020
2044	2021
2034	2016
2040	2017
2043	2015
2051	2019
2041	2018
2050	2021
2059	2024
2049	2028
2046	2025
2057	2036
2065	2042
2069	2050
2059	2045
2062	2051
2064	2049
2059	2052
2045	2047
2043	2050
2049	2049
2035	2050
2022	2043
2031	2047
2043	2043
2033	2045
2013	2036
2014	2039
2015	2039
2016	2040
2024	2036
2052	2038
2094	2044
2139	2048
2151	2045
2133	2051
2070	2054
2027	2055
1989	2048
1945	2049
1916	2044
1923	2044
1944	2039
1974	2043
2003	2037
2012	2036
2017	2027
2029	2021
2031	2021
2029	2021
2036	2022
2050	2032
2060	2040
2058	2053
2050	2056
2059	2066
2056	2072
2051	2072
2044	2075
2054	2073
2063	2070
2057	2070
2056	2061
2061	2059
2069	2050
2070	2045
2069	2040
2077	2037
2077	2032
2078	2032
2071	2026
2073	2025
2075	2025
2081	2032
2079	2029
2093	2032
2091	2031
2090	2030
2084	2026
2087	2029
2095	2026
2091	2030
2086	2027
2094	2032
2097	2031
2095	2031
2081	2031
2071	2033
2074	2032
2074	2032
2060	2027
2047	2025
2045	2021
2034	2021
2022	2018
2025	2019
2019	2016
2004	2019
1999	2015
2005	2018
2013	2022
2009	2028
2003	2029
2006	2034
2011	2038
2007	2045
2009	2044
2016	2045
2015	2046
2009	2051
2007	2050
2025	2054
2023	2052
2019	2054
2003	2047
2014	2047
2025	2041
2023	2045
2011	2037
2015	2042
2025	2039
2018	2043
2010	2041
2018	2047
2028	2048
2018	2047
2010	2046
2021	2051
2027	2050
2019	2051
2011	2044
2024	2040
2026	2033
2017	2033
2016	2028
2029	2032
2022	2038
2015	2040
2013	2041
2025	2041
2021	2038
2017	2045
2023	2035
2029	2043
2035	2043
2033	2047
2029	2043
2037	2043
2036	2033
2026	2035
2021	2033
2028	2035
2042	2035
2046	2037
2034	2034
2034	2035
2039	2030
2032	2037
2031	2037
2031	2044
2041	2050
2037	2055
2030	2059
2031	2061
2044	2053
2036	2059
2033	2057
2043	2055
2053	2048
2045	2046
2044	2036
2061	2037
2067	2037
2052	2037
2053	2037
2062	2035
2074	2037
2061	2039
2055	2032
2039	2032
2031	2023
2027	2027
2023	2021
2031	2025
2044	2025
2031	2028
2025	2029
2039	2037
2036	2046
2030	2053
2025	2059
2033	2067
2049	2069
2057	2074
2079	2069
2124	2070
2155	2063
2151	2060
2083	2051
2033	2051
2007	2046
1956	2042
1913	2036
1919	2036
1945	2034
1980	2035
1995	2031
2018	2037
2037	2033
2039	2038
2037	2033
2041	2036
2049	2037
2055	2040
2049	2035
2043	2038
2053	2038
2054	2044
2046	2037
2057	2037
2067	2035
2065	2032
2064	2022
2066	2019
2074	2016
2071	2018
2064	2015
2069	2019
2081	2021
2079	2026
2072	2022
2081	2028
2079	2027
2077	2036
2068	2036
2072	2041
2083	2040
2082	2043
2089	2038
2098	2043
2102	2036
2096	2042
2088	2037
2095	2039
2101	2039
2097	2041
2097	2041
2086	2040
2081	2036
2070	2039
2057	2034
2062	2035
2066	2035
2047	2038
2034	2032
2028	2035
2026	2034
2011	2039
2001	2036
2008	2037
2012	2037
2011	2045
1989	2040
1989	2040
1991	2033
1992	2040
1999	2036
2015	2040
2020	2043
2013	2047
1999	2046
2003	2048
2008	2045
2010	2052
2008	2045
2011	2049
2016	2044
2016	2045
2014	2040
2019	2043
2028	2042
2028	2044
2011	2039
2017	2039
2028	2033
2028	2029
2024	2024
2026	2028
2027	2026
2024	2030
2017	2028
2019	2032
2026	2030
2030	2036
2023	2037
2026	2040
2035	2040
2025	2053
2017	2046
2031	2049
2033	2044
2033	2045
2025	2037
2031	2033
2039	2029
2039	2025
2027	2022
2030	2027
2038	2029
2034	2031
2031	2021
2036	2018
2043	2019
2033	2027
2027	2029
2038	2041
2041	2044
2036	2056
2031	2057
2047	2060
2055	2058
2048	2061
2041	2058
2050	2059
2064	2051
2057	2057
2053	2051
2061	2055
2063	2051
2052	2060
2051	2052
2055	2054
2049	2043
2040	2043
2036	2033
2037	2035
2042	2032
2042	2037
2027	2031
2028	2037
2032	2036
2028	2038
2031	2032
2031	2036
2035	2038
2039	2047
2053	2046
2095	2051
2155	2056
2165	2067
2121	2069
2055	2072
2019	2075
1975	2082
1919	2079
1907	2086
1929	2084
1954	2084
1979	2075
2001	2075
2024	2066
2029	2064
2031	2059
2041	2058
2057	2055
2058	2058
2053	2052
2055	2049
2066	2043
2064	2041
2063	2034
2068	2032
2073	2023
2071	2022
2060	2014
2062	2010
2073	2007
2069	2012
2067	2008
2083	2013
2089	2015
2084	2021
2077	2028
2079	2034
2092	2036
2095	2042
2087	2036
2087	2041
2097	2035
2097	2043
2101	2038
2106	2040
2119	2038
2118	2047
2105	2046
2107	2047
2116	2042
2110	2045
2098	2039
2108	2037
2116	2025
2101	2025
2082	2014
2079	2013
2078	2009
2067	2013
2049	2015
2041	2023
2050	2019
2046	2030
2037	2025
2036	2029
2032	2029
2013	2034
2006	2030
2011	2033
2014	2037
2008	2042
2006	2043
2015	2051
2027	2051
2029	2052
2018	2046
2017	2046
2020	2043
2023	2045
2013	2041
2027	2045
2029	2050
2018	2054
2018	2053
2024	2063
2031	2063
2025	2069
2015	2065
2016	2064
2027	2059
2020	2061
2019	2056
2030	2060
2035	2053
2024	2051
2012	2043
2017	2035
2023	2030
2021	2030
2014	2026
2021	2029
2025	2020
2026	2026
2022	2026
2024	2031
2029	2034
2028	2042
2022	2046
2026	2050
2027	2050
2022	2054
2012	2049
2020	2052
2027	2049
2022	2053
2024	2049
2028	2046
2043	2039
2044	2041
2033	2036
2032	2035
2032	2031
2036	2027
2021	2023
2019	2025
2025	2024
2029	2025
2026	2017
2030	2020
2045	2022
2037	2033
2030	2030
2040	2033
2061	2033
2065	2043
2059	2040
2058	2041
2068	2038
2063	2045
2045	2044
2035	2048
2039	2051
2040	2055
2021	2050
2027	2056
2038	2050
2037	2058
2032	2053
2028	2059
2035	2057
2029	2058
2018	2056
2028	2059
2048	2057
2058	2061
2068	2054
2118	2056
2152	2050
2149	2053
2093	2048
2043	2049
2007	2046
1963	2046
1922	2047
1925	2051
1956	2050
1993	2055
2006	2052
2016	2051
2031	2046
2034	2051
2029	2045
2041	2051
2058	2041
2054	2043
2055	2031
2059	2033
2061	2024
2057	2025
2048	2020
2046	2019
2058	2019
2059	2028
2059	2029
2069	2035
2083	2037
2069	2043
2054	2042
2064	2050
2071	2050
2077	2059
2075	2054
2082	2055
2090	2049
2088	2049
2079	2045
2088	2043
2090	2039
2092	2026
2093	2012
2099	2008
2108	2005
2106	2009
2107	2014
2102	2026
2103	2034
2102	2045
2093	2047
2087	2053
2089	2050
2086	2052
2075	2046
2069	2053
2069	2052
2059	2058
2046	2054
2043	2053
2038	2050
2028	2054
2015	2053
2009	2051
2016	2040
1996	2041
1988	2033
1995	2034
1999	2031
2001	2036
2003	2033
2009	2037
2015	2030
2015	2035
2012	2025
2007	2030
2015	2028
2015	2031
2015	2027
2015	2028
2019	2025
2011	2025
2004	2025
2015	2031
2023	2032
2020	2039
2015	2044
2016	2056
2022	2056
2022	2063
2022	2055
2033	2055
2041	2048
2031	2045
2019	2036
2020	2032
2029	2029
2035	2031
2031	2026
2026	2030
2029	2027
2026	2029
2025	2030
2027	2035
2039	2031
2035	2037
2029	2038
2028	2041
2029	2041
2030	2045
2017	2040
2024	2046
2033	2041
2037	2044
2037	2037
2043	2032
2046	2030
2041	2029
2038	2027
2039	2035
2041	2032
2037	2040
2031	2037
2033	2040
2043	2038
2045	2037
2033	2037
2037	2039
2050	2037
2051	2044
2045	2042
2048	2047
2067	2048
2069	2052
2053	2045
2051	2046
2067	2035
2072	2035
2069	2027
2068	2026
2071	2024
2057	2030
2043	2034
2043	2033
2048	2037
2039	2043
2036	2044
2037	2045
2047	2042
2046	2046
2032	2044
2035	2043
2035	2040
2027	2041
2027	2031
2041	2033
2078	2026
2127	2031
2160	2033
2159	2043
2125	2042
2060	2053
2027	2050
1986	2053
1940	2054
1929	2058
1948	2055
1966	2054
1998	2050
2015	2053
2017	2036
2023	2021
2036	1998
2044	1993
2041	1992
2045	2004
2050	2011
2055	2025
2050	2030
2058	2041
2066	2047
2068	2060
2053	2067
2055	2071
2064	2073
2066	2077
2066	2074
2067	2072
2075	2069
2077	2074
2073	2069
2070	2075
2079	2069
2077	2069
2079	2064
2083	2063
2089	2055
2087	2054
2085	2047
2088	2048
2089	2045
2092	2050
2091	2045
2099	2046
2105	2046
2099	2046
2093	2044
2096	2051
2092	2046
2089	2052
2077	2045
2075	2047
2075	2041
2063	2042
2050	2036
2054	2039
2056	2040
2049	2047
2027	2050
2015	2049
2010	2043
2009	2045
2000	2041
1998	2044
2007	2043
2008	2050
1997	2048
1996	2049
2001	2046
2000	2048
1998	2043
2004	2043
2011	2041
2011	2038
2011	2036
2008	2036
2021	2036
2021	2036
2015	2031
2008	2033
2027	2028
2026	2037
2024	2034
2022	2038
2028	2039
2032	2038
2022	2034
2021	2036
2025	2034
2029	2034
2023	2029
2022	2032
2029	2032
2025	2036
2015	2033
2022	2033
2026	2030
2025	2031
2016	2024
2017	2028
2027	2024
2026	2027
2019	2027
2022	2037
2031	2037
2041	2045
2038	2048
2036	2052
2037	2058
2038	2061
2025	2060
2027	2059
2039	2054
2038	2053
2029	2048
2027	2044
2034	2036
2033	2034
2029	2027
2029	2026
2037	2027
2040	2030
2036	2025
2043	2026
2062	2023
2066	2026
2057	2028
2071	2031
2076	2033
2064	2039
2048	2036
2056	2036
2067	2035
2069	2039
2058	2036
2055	2041
2066	2039
2073	2042
2057	2041
2051	2045
2060	2048
2051	2058
2032	2054
2032	2057
2043	2055
2054	2059
2046	2056
2043	2062
2051	2055
2045	2058
2037	2048
2034	2049
2051	2042
2057	2043
2050	2032
2078	2035
2139	2031
2167	2032
2143	2025
2075	2020
2028	2019
2001	2020
1944	2019
1911	2025
1928	2024
1964	2029
1985	2030
2000	2035
2026	2036
2030	2041
2027	2040
2037	2043
2056	2042
2049	2050
2041	2046
2049	2047
2063	2054
2059	2059
2051	2057
2058	2059
2071	2054
2077	2059
2073	2053
2066	2057
2065	2044
2069	2047
2062	2042
2065	2044
2083	2044
2076	2041
2068	2032
2068	2031
2077	2021
2081	2020
2087	2019
2087	2021
2094	2019
2097	2029
2097	2028
2095	2030
2115	2033
2110	2040
2099	2040
2095	2046
2103	2048
2101	2052
2095	2053
2093	2059
2094	2061
2085	2067
2074	2065
2070	2062
2080	2057
2065	2060
2037	2056
2034	2057
2047	2054
2033	2054
2007	2047
2001	2046
2007	2041
2007	2042
1996	2036
1991	2036
1995	2032
1995	2031
1987	2027
1992	2027
2006	2018
1997	2020
1992	2020
1999	2018
2015	2022
2012	2022
1998	2025
1997	2027
2008	2031
2016	2035
2013	2031
2017	2033
2021	2031
2017	2038
2010	2033
2009	2038
2023	2037
2015	2038
2013	2035
2017	2037
2028	2036
2020	2045
2013	2041
2020	2041
2031	2042
2023	2049
2014	2049
2015	2047
2029	2045
2034	2048
2023	2040
2020	2034
2031	2033
2033	2034
2020	2035
2021	2038
2026	2038
2033	2042
2029	2039
2033	2041
2037	2032
2034	2036
2021	2028
2026	2027
2035	2023
2033	2025
2026	2021
2031	2025
2041	2024
2049	2031
2032	2029
2031	2028
2041	2023
2047	2025
2049	2028
2053	2036
2057	2037
2050	2041
2049	2038
2050	2042
2059	2045
2065	2048
2070	2048
2067	2050
2066	2051
2057	2055
2039	2052
2039	2052
2045	2049
2043	2053
2033	2051
2035	2049
2044	2050
2043	2058
2037	2060
2039	2060
2043	2059
2037	2058
2034	2052
2051	2049
2077	2046
2113	2043
2141	2042
2150	2041
2121	2041
2055	2040
2005	2039
1973	2042
1938	2045
1925	2054
1936	2053
1963	2049
1991	2041
2013	2041
2025	2036
2032	2034
2043	2031
2045	2033
2045	2027
2054	2024
2063	2022
2071	2024
2068	2022
2068	2021
2070	2025
2075	2028
2070	2029
2067	2033
2081	2034
2080	2039
2065	2040
2066	2047
2085	2049
2083	2061
2067	2062
2065	2064
2080	2063
2089	2068
2085	2064
2087	2062
2097	2057
2087	2055
2084	2050
2085	2047
2097	2046
2101	2046
2095	2044
2084	2045
2093	2037
2104	2039
2093	2031
2093	2026
2104	2022
2101	2027
2092	2028
2083	2033
2079	2031
2071	2039
2066	2043
2067	2047
2054	2052
2036	2056
2010	2054
2005	2054
2010	2049
2009	2045
2001	2043
1997	2039
1996	2039
1999	2040
1991	2037
1993	2034
2007	2039
2007	2045
2000	2048
2000	2050
2007	2049
2007	2051
2005	2050
2003	2055
2025	2052
2024	2057
2013	2051
2005	2049
2014	2047
2017	2047
2013	2039
2010	2039
2022	2035
2021	2037
2016	2035
2026	2040
2036	2035
2037	2041
2018	2039
2017	2038
2021	2032
2023	2034
2017	2032
2020	2037
2033	2036
2030	2037
2019	2038
2025	2043
2029	2046
2023	2051
2019	2049
2023	2045
2032	2046
2031	2044
2027	2040
2025	2039
2029	2034
2047	2031
2041	2027
2030	2026
2034	2025
2031	2028
2031	2028
2031	2036
2041	2035
2041	2045
2037	2042
2031	2045
2041	2045
2041	2049
2037	2049
2031	2047
2039	2043
2044	2045
2042	2040
2043	2042
2048	2039
2047	2043
2042	2043
2039	2043
2055	2040
2062	2041
2062	2040
2063	2036
2073	2033
2075	2035
2060	2032
2047	2040
2051	2037
2047	2040
2035	2033
2030	2035
2041	2036
2039	2039
2035	2040
2037	2044
2036	2044
2037	2047
2033	2045
2019	2043
2034	2045
2047	2050
2060	2049
2091	2051
2137	2045
2167	2048
2149	2042
2079	2043
2044	2039
2018	2038
1962	2036
1910	2036
1917	2033
1953	2033
1983	2031
1997	2032
2013	2031
2031	2034
2033	2037
2029	2037
2040	2034
2051	2041
2045	2046
2052	2048
2057	2055
2064	2059
2053	2052
2057	2046
2057	2039
2061	2035
2056	2031
2057	2033
2064	2028
2067	2025
2068	2023
2068	2023
2067	2020
2072	2024
2082	2021
2077	2029
2076	2033
2078	2038
2069	2042
2070	2046
2076	2047
2082	2052
2077	2052
2077	2052
2095	2052
2093	2054
2090	2051
2088	2055
2096	2056
2098	2059
2101	2059
2095	2065
2091	2067
2076	2071
2072	2069
2069	2068
2065	2066
2056	2063
2052	2054
2037	2051
2027	2044
2022	2035
2009	2032
2003	2028
2007	2023
2010	2021
2002	2019
1999	2024
1999	2024
1993	2023
1998	2023
2003	2025
2012	2024
2012	2028
2012	2029
2007	2032
2014	2039
2005	2044
2007	2045
2011	2050
2022	2042
2023	2049
2014	2041
2019	2037
2025	2033
2023	2032
2022	2033
2016	2036
2020	2036
2023	2039
2016	2036
2017	2035
2031	2032
2039	2033
2036	2030
2028	2033
2029	2037
2031	2041
2027	2037
2023	2036
2031	2034
2029	2038
2023	2041
2025	2046
2029	2046
2034	2054
2032	2052
2034	2052
2035	2051
2030	2055
2026	2054
2023	2052
2032	2051
2049	2051
2043	2045
2037	2045
2041	2044
2035	2049
2023	2043
2023	2040
2035	2041
2042	2041
2039	2037
2033	2037
2037	2036
2037	2040
2030	2042
2027	2040
2039	2042
2044	2046
2038	2045
2033	2045
2043	2045
2049	2043
2045	2040
2042	2036
2054	2037
2056	2037
2054	2032
2053	2028
2056	2023
2059	2021
2053	2018
2057	2020
2072	2026
2076	2030
2058	2031
2047	2035
2049	2037
2041	2041
2037	2044
2039	2044
2045	2044
2048	2050
2038	2053
2035	2054
2043	2053
2042	2056
2036	2054
2029	2054
2039	2051
2050	2050
2077	2050
2125	2050
2160	2046
2168	2044
2107	2044
2041	2044
2019	2036
1976	2035
1930	2032
1927	2033
1949	2027
1977	2031
2003	2032
2020	2033
2034	2034
2039	2030
2035	2024
2040	2018
2055	2017
2065	2021
2055	2023
2056	2021
2068	2025
2075	2028
2059	2030
2056	2035
2071	2042
2073	2048
2070	2048
2061	2045
2066	2046
2073	2047
2063	2047
2065	2046
2073	2045
2077	2045
2069	2043
2071	2045
2084	2052
2092	2051
2087	2049
2083	2045
2089	2042
2095	2043
2095	2043
2093	2042
2100	2033
2110	2034
2107	2034
2097	2031
2096	2032
2100	2033
2093	2029
2083	2028
2085	2029
2081	2026
2076	2021
2067	2018
2069	2018
2060	2030
2044	2035
2036	2030
2030	2034
2029	2040
2009	2040
2007	2038
2013	2043
2014	2045
2009	2049
2010	2047
2011	2048
2015	2050
2010	2049
2011	2050
2023	2050
2029	2055
2018	2056
2021	2053
2027	2051
2026	2057
2025	2053
2030	2056
2037	2058
2039	2060
2032	2054
2033	2052
2040	2050
2049	2049
2037	2050
2023	2048
2023	2051
2034	2049
2025	2046
2021	2045
2022	2045
2026	2047
2026	2050
2021	2049
2030	2046
2033	2050
2018	2047
2011	2042
2024	2034
2034	2036
2026	2037
2017	2035
2025	2034
2026	2033
2012	2035
2015	2039
2018	2045
2025	2050
2027	2053
2027	2054
2027	2057
2021	2055
2021	2053
2015	2046
2025	2046
2024	2049
2015	2044
2016	2034
2024	2030
2023	2023
2021	2022
2027	2022
2043	2019
2050	2016
2032	2018
2022	2017
2024	2021
2033	2020
2033	2020
2033	2019
2038	2022
2053	2025
2050	2028
2041	2035
2045	2037
2055	2038
2044	2037
2045	2036
2048	2034
2056	2035
2062	2035
2058	2035
2062	2037
2060	2036
2047	2036
2040	2031
2035	2030
2037	2030
2034	2035
2028	2039
2033	2042
2049	2048
2043	2053
2035	2053
2034	2052
2033	2048
2033	2046
2030	2044
2053	2051
2079	2054
2114	2057
2142	2052
2162	2051
2114	2037
2045	2022
2003	2002
1959	1988
1922	1977
1922	1966
1944	1954
1983	1946
2007	1949
2021	1962
2031	1981
2045	2002
2061	2025
2064	2041
2052	2053
2058	2063
2067	2069
2064	2073
2064	2071
2075	2075
2071	2076
2058	2080
2059	2080
2072	2073
2069	2070
2075	2065
2072	2065
2072	2065
2073	2067
2073	2070
2076	2065
2088	2064
2092	2060
2075	2058
2074	2058
2082	2060
2086	2062
2080	2063
2077	2062
2090	2059
2101	2053
2097	2052
2099	2050
2104	2048
2111	2047
2101	2044
2089	2038
2093	2039
2108	2041
2099	2040
2087	2035
2082	2035
2085	2034
2066	2035
2047	2033
2045	2030
2050	2037
2037	2039
2026	2037
2017	2037
2015	2036
2008	2032
1995	2033
2002	2032
1999	2032
1989	2036
1994	2036
2004	2043
2002	2046
1997	2044
1995	2042
1997	2041
2007	2041
2001	2033
2007	2029
2012	2028
2021	2030
2007	2027
2007	2025
2020	2030
2022	2031
2017	2031
2017	2034
2023	2035
2029	2037
2029	2037
2017	2039
2025	2039
2032	2036
2034	2038
2021	2031
2013	2035
2027	2035
2023	2038
2014	2037
2022	2043
2025	2043
2029	2046
2028	2040
2021	2037
2028	2033
2025	2033
2024	2031
2035	2036
2046	2033
2039	2034
2019	2030
2019	2035
2027	2045
2023	2045
2026	2049
2028	2047
2036	2050
2028	2043
2026	2039
2026	2043
2035	2043
2040	2049
2044	2045
2048	2045
2053	2050
2046	2054
2046	2053
2055	2060
2050	2065
2045	2070
2041	2066
2048	2061
2063	2061
2061	2059
2050	2054
2046	2056
2057	2056
2058	2050
2058	2045
2066	2039
2070	2036
2059	2032
2059	2027
2069	2031
2073	2031
2075	2033
2074	2034
2064	2037
2057	2038
2042	2042
2033	2036
2045	2034
2051	2030
2041	2032
2035	2028
2056	2028
2054	2031
2042	2033
2027	2029
2023	2033
2031	2031
2041	2031
2063	2028
2104	2033
2150	2034
2165	2033
2132	2029
2067	2030
2033	2031
1996	2032
1944	2035
1926	2039
1946	2035
1966	2035
1976	2028
1999	2024
2017	2024
2018	2025
2015	2027
2018	2031
2028	2031
2040	2034
2039	2037
2047	2041
2055	2045
2049	2053
2045	2053
2041	2055
2058	2053
2063	2053
2061	2049
2064	2043
2063	2043
2054	2043
2061	2037
2071	2038
2074	2038
2070	2043
2070	2041
2075	2043
2081	2046
2077	2043
2079	2044
2093	2044
2093	2044
2090	2046
2084	2045
2092	2044
2105	2049
2095	2049
2089	2050
2097	2049
2102	2051
2091	2057
2090	2057
2097	2057
2095	2058
2088	2059
2074	2059
2071	2059
2062	2061
2051	2059
2046	2053
2039	2050
2029	2047
2019	2051
2015	2051
2017	2051
2015	2048
2010	2050
1996	2045
2000	2039
2005	2037
2005	2030
1999	2028
2004	2026
2010	2024
2002	2025
1999	2023
2001	2023
2010	2024
2009	2028
2005	2027
2015	2028
2024	2026
2017	2026
2016	2020
2024	2025
2029	2026
2023	2027
2015	2019
2016	2015
2019	2015
2011	2019
2015	2019
2023	2021
2023	2023
2017	2028
2016	2022
2024	2023
2033	2023
2031	2029
2017	2031
2022	2031
2031	2035
2033	2041
2025	2040
2028	2044
2031	2045
2021	2048
2013	2044
2019	2045
2031	2049
2022	2051
2030	2053
2036	2057
2041	2058
2033	2056
2027	2056
2033	2056
2042	2053
2030	2052
2021	2049
2027	2044
2041	2041
2036	2043
2021	2035
2025	2039
2033	2038
2034	2037
2033	2033
2033	2033
2041	2031
2034	2031
2031	2031
2037	2031
2040	2032
2035	2034
2032	2035
2033	2036
2046	2033
2040	2034
2039	2031
2044	2033
2052	2038
2055	2041
2050	2036
2052	2038
2059	2043
2058	2042
2061	2040
2062	2041
2067	2041
2049	2042
2040	2041
2041	2043
2037	2046
2038	2046
2039	2045
2041	2040
2041	2039
2035	2038
2026	2034
2028	2037
2034	2039
2026	2044
2031	2045
2051	2046
2082	2052
2126	2055
2159	2053
2157	2058
2118	2060
2058	2060
2026	2058
1983	2057
1937	2053
1924	2051
1937	2043
1975	2041
2017	2035
2024	2034
2023	2031
2036	2029
2048	2026
2045	2026
2037	2022
2050	2022
2074	2025
2073	2021
2060	2018
2063	2020
2070	2025
2065	2032
2057	2034
2059	2032
2067	2035
2071	2038
2068	2037
2070	2037
2072	2042
2066	2047
2070	2048
2070	2049
2075	2044
2079	2048
2077	2047
2077	2051
2094	2053
2088	2054
2086	2050
2083	2047
2093	2043
2092	2048
2085	2049
2088	2047
2100	2049
2099	2049
2094	2045
2097	2038
2102	2034
2087	2032
2083	2032
2080	2029
2081	2030
2070	2029
2058	2027
2047	2031
2044	2034
2029	2038
2016	2037
2011	2045
2016	2047
2007	2053
1999	2052
2005	2050
2013	2051
2006	2052
2001	2045
2004	2040
2006	2036
2007	2033
2001	2023
1999	2012
2003	2008
2001	2010
2003	2008
2015	2015
2013	2020
2013	2030
2015	2034
2021	2042
2023	2050
2015	2056
2015	2057
2021	2060
2024	2058
2020	2054
2021	2054
2028	2056
2028	2053
2025	2054
2024	2054
2025	2050
2023	2045
2017	2045
2012	2039
2017	2038
2023	2035
2023	2037
2017	2032
2021	2034
2024	2035
2023	2037
2023	2037
2029	2036
2042	2035
2026	2036
2023	2028
2031	2028
2038	2028
2028	2027
2021	2026
2027	2029
2036	2030
2037	2033
2031	2033
2031	2034
2036	2038
2027	2045
2027	2043
2041	2049
2047	2046
2041	2052
2039	2047
2049	2051
2044	2051
2030	2051
2029	2046
2038	2044
2045	2036
2037	2037
2031	2032
2029	2031
2039	2031
2042	2035
2043	2031
2048	2034
2053	2039
2053	2043
2047	2045
2048	2046
2061	2053
2059	2051
2052	2046
2062	2043
2078	2044
2072	2046
2060	2044
2054	2044
2054	2045
2035	2046
2031	2042
2031	2045
2045	2046
2041	2045
2035	2041
2037	2046
2043	2049
2039	2050
2029	2045
2025	2042
2032	2039
2033	2042
2041	2037
2061	2036
2125	2040
2157	2044
2154	2040
2094	2042
2049	2046
2010	2052
1958	2047
1921	2048
1925	2043
1946	2044
1967	2040
1991	2042
2021	2042
2033	2043
2035	2041
2039	2043
2047	2042
2048	2045
2045	2045
2046	2044
2067	2036
2066	2039
2068	2039
2076	2038
2082	2035
2069	2033
2072	2026
2074	2025
2075	2027
2073	2022
2075	2022
2077	2025
2076	2031
2075	2037
2068	2036
2069	2041
2087	2044
2093	2044
2091	2042
2092	2045
2096	2043
2092	2047
2093	2041
2108	2045
2111	2043
2106	2043
2101	2040
2096	2038
2101	2036
2105	2044
2103	2042
2099	2045
2094	2042
2090	2050
2083	2045
2082	2047
2074	2042
2059	2038
2043	2037
2029	2038
2031	2038
2026	2045
2014	2046
2011	2049
2007	2049
1994	2051
1987	2046
2000	2044
2008	2037
2002	2043
1997	2042
2007	2050
2017	2053
2007	2055
2007	2058
2015	2056
2017	2055
2011	2055
2000	2050
2001	2050
2017	2041
2016	2042
2010	2035
2008	2031
2018	2027
2008	2027
2005	2021
2008	2023
2020	2023
2037	2025
2029	2023
2020	2026
2023	2026
2033	2032
2034	2033
2030	2036
2036	2039
2032	2052
2022	2053
2027	2058
2033	2061
2027	2064
2022	2059
2027	2061
2037	2062
2037	2066
2041	2062
2034	2064
2030	2059
2026	2063
2021	2063
2031	2069
2033	2066
2034	2069
2029	2063
2029	2060
2034	2057
2027	2056
2021	2052
2035	2045
2047	2037
2031	2039
2029	2033
2036	2030
2042	2028
2033	2027
2029	2016
2041	2014
2052	2013
2050	2016
2047	2013
2052	2013
2062	2016
2052	2024
2049	2026
2058	2029
2067	2027
2065	2034
2065	2029
2058	2029
2063	2032
2067	2035
2058	2031
2050	2033
2050	2031
2045	2041
2037	2044
2040	2046
2047	2052
2043	2056
2037	2052
2031	2054
2036	2046
2035	2046
2025	2043
2029	2039
2052	2041
2064	2047
2101	2043
2136	2044
2162	2051
2129	2058
2057	2058
2011	2064
1984	2062
1933	2060
1907	2059
1923	2056
1962	2059
1990	2061
2007	2059
2023	2062
2044	2061
2042	2057
2037	2045
2036	2039
2051	2034
2055	2034
2058	2026
2058	2022
2066	2021
2067	2022
2058	2018
2058	2017
2067	2017
2074	2023
2059	2021
2064	2024
2075	2024
2080	2031
2079	2032
2081	2033
2089	2036
2090	2041
2076	2043
2078	2048
2095	2049
2089	2048
2079	2043
2080	2040
2101	2041
2114	2045
2110	2045
2106	2053
2109	2055
2097	2061
2099	2062
2097	2061
2097	2063
2097	2064
2088	2061
2093	2062
2093	2061
2078	2056
2069	2053
2063	2054
2063	2051
2051	2049
2024	2041
2025	2039
2032	2036
2023	2038
2021	2035
2015	2037
2013	2036
2005	2041
1995	2037
1986	2035
1999	2031
1997	2032
2003	2026
2007	2032
2010	2034
2004	2037
2002	2031
2006	2032
2019	2026
2024	2026
2011	2026
2007	2027
2025	2026
2023	2033
2015	2032
2016	2037
2029	2033
2025	2031
2015	2027
2021	2024
2027	2026
2033	2033
2015	2033
2013	2039
2023	2041
2032	2047
2024	2043
2021	2044
2033	2044
2031	2043
2019	2039
2025	2038
2035	2037
2040	2045
2033	2046
2030	2055
2033	2058
2033	2067
2025	2065
2023	2068
2027	2061
2028	2057
2029	2049
2025	2052
2031	2049
2034	2045
2027	2043
2034	2050
2040	2047
2036	2051
2032	2056
2032	2051
2045	2050
2045	2050
2043	2048
2033	2048
2031	2045
2031	2047
2031	2046
2039	2041
2043	2038
2043	2039
2031	2034
2033	2037
2045	2032
2048	2037
2041	2037
2043	2040
2061	2041
2063	2044
2052	2043
2050	2044
2063	2046
2067	2049
2062	2046
2064	2045
2067	2042
2045	2045
2033	2041
2025	2041
2034	2043
2037	2045
2032	2043
2040	2041
2046	2041
2035	2041
2023	2041
2019	2037
2032	2038
2029	2036
2031	2031
2041	2031
2073	2025
2112	2028
2140	2023
2147	2025
2111	2025
2043	2030
2014	2031
1968	2034
1932	2034
1923	2033
1939	2032
1968	2032
2011	2031
2019	2029
2022	2027
2031	2028
2045	2033
2041	2036
2032	2038
2037	2042
2059	2040
2055	2044
2047	2044
2052	2050
2062	2051
2063	2057
2059	2059
2061	2062
2066	2061
2073	2062
2068	2057
2065	2055
2074	2050
2071	2050
2065	2049
2062	2047
2081	2042
2073	2045
2076	2043
2080	2039
2089	2037
2089	2037
2084	2033
2091	2032
2096	2030
2095	2027
2096	2025
2096	2026
2104	2027
2108	2032
2097	2033
2091	2035
2102	2037
2094	2039
2084	2039
2083	2036
2083	2033
2070	2036
2056	2037
2048	2035
2050	2035
2038	2039
2020	2035
2011	2035
2019	2029
2017	2031
2010	2028
2005	2028
2009	2027
2005	2027
2003	2026
2003	2026
2016	2026
2010	2026
2006	2022
2012	2027
2018	2024
2014	2024
2013	2026
2015	2030
2022	2031
2017	2035
2016	2037
2025	2043
2042	2047
2037	2055
2031	2056
2036	2059
2050	2062
2039	2063
2033	2064
2029	2065
2039	2071
2039	2066
2033	2062
2036	2060
2034	2056
2035	2050
2031	2041
2029	2039
2037	2035
2031	2036
2025	2031
2019	2025
2024	2026
2036	2029
2029	2031
2030	2034
2044	2033
2033	2034
2029	2033
2031	2033
2036	2037
2033	2037
2038	2037
2038	2035
2041	2028
2035	2027
2029	2023
2039	2028
2048	2029
2041	2034
2038	2033
2034	2034
2035	2036
2039	2038
2031	2039
2034	2039
2049	2045
2040	2049
2032	2046
2027	2051
2038	2051
2039	2051
2041	2049
2044	2048
2046	2049
2043	2045
2040	2040
2043	2045
2050	2045
2047	2049
2042	2046
2049	2046
2058	2048
2061	2043
2056	2044
2054	2044
2073	2039
2071	2041
2053	2045
2038	2049
2047	2049
2049	2051
2038	2048
2049	2049
2045	2054
2035	2056
2029	2061
2033	2058
2037	2057
2033	2053
2028	2051
2025	2049
2041	2043
2054	2038
2089	2037
2133	2035
2157	2033
2128	2035
2063	2033
2025	2034
1999	2034
1945	2039
1910	2039
1914	2039
1962	2039
1990	2036
2003	2033
2012	2031
2028	2031
2035	2034
2036	2038
2031	2041
2045	2045
2058	2052
2056	2057
2049	2062
2063	2060
2065	2060
2058	2053
2059	2051
2066	2051
2062	2053
2056	2052
2047	2050
2064	2049
2071	2046
2063	2044
2063	2039
2076	2040
2080	2040
2069	2034
2070	2031
2080	2029
2085	2028
2086	2022
2087	2021
2096	2021
2094	2026
2089	2027
2096	2026
2109	2023
2104	2024
2097	2031
2092	2032
2112	2035
2110	2040
2088	2042
2082	2040
2085	2038
2080	2037
2061	2030
2053	2029
2061	2028
2051	2036
2031	2033
2017	2033
2023	2035
2023	2041
2013	2038
2004	2039
2006	2045
2004	2044
1999	2042
1997	2045
1999	2040
1999	2043
1998	2041
1997	2042
2011	2039
2010	2036
2003	2027
2009	2022
2024	2025
2020	2025
2011	2029
2013	2034
2027	2037
2024	2038
2013	2036
2012	2031
2023	2027
2025	2032
2020	2038
2017	2038
2021	2037
2015	2044
2017	2046
2017	2044
2027	2045
2028	2048
2021	2048
2025	2043
2038	2042
2025	2034
2011	2031
2014	2030
2027	2031
2032	2034
2027	2033
2026	2035
2043	2037
2036	2044
2022	2043
2021	2043
2033	2042
2026	2043
2026	2040
2025	2037
2041	2038
2036	2036
2026	2030
2020	2029
2026	2027
2027	2028
2022	2035
2027	2043
2034	2046
2037	2053
2040	2058
2038	2060
2038	2060
2039	2064
2039	2065
2036	2062
2049	2061
2045	2061
2038	2049
2029	2045
2045	2039
2052	2040
2051	2039
2051	2039
2054	2037
2054	2040
2059	2041
2066	2036
2067	2035
2058	2034
2050	2031
2041	2033
2047	2036
2042	2037
2032	2041
2029	2044
2049	2049
2051	2058
2034	2059
2028	2060
2037	2063
2038	2060
2032	2055
2029	2043
2045	2036
2045	2036
2059	2026
2099	2021
2150	2019
2161	2017
2107	2012
2042	2010
2003	2010
1959	2011
1920	2018
1912	2019
1941	2029
1976	2031
2006	2033
2024	2039
2043	2040
2051	2041
2040	2042
2042	2038
2053	2035
2050	2041
2049	2037
2056	2036
2071	2037
2068	2035
2065	2033
2065	2030
2071	2031
2076	2034
2067	2036
2067	2037
2071	2043
2063	2047
2068	2048
2075	2048
2085	2056
2088	2057
2085	2057
2080	2057
2085	2054
2096	2056
2092	2053
2080	2047
2087	2050
2089	2047
2098	2044
2101	2040
2110	2039
2110	2040
2101	2042
2104	2043
2106	2046
2102	2050
2094	2055
2097	2051
2107	2051
2097	2053
2079	2052
2067	2048
2065	2047
2061	2045
2050	2041
2030	2041
2025	2036
2027	2031
2023	2025
2018	2019
2014	2017
2004	2022
1997	2027
1991	2031
2000	2037
2005	2040
1999	2039
2001	2042
2011	2043
2025	2048
2019	2050
2010	2050
2020	2049
2019	2045
2017	2044
2013	2039
2021	2034
2027	2031
2014	2030
2010	2028
2019	2027
2030	2029
2022	2027
2018	2029
2029	2035
2028	2036
2024	2039
2020	2035
2024	2031
2027	2031
2023	2027
2025	2028
2028	2033
2031	2032
2019	2035
2019	2035
2025	2041
2030	2044
2020	2047
2018	2049
2030	2053
2038	2060
2029	2059
2019	2060
2032	2057
2034	2054
2027	2050
2021	2044
2033	2041
2040	2040
2036	2035
2031	2030
2041	2029
2038	2026
2041	2023
2039	2020
2045	2026
2045	2025
2038	2022
2037	2023
2053	2021
2046	2030
2027	2034
2033	2038
2046	2039
2051	2040
2053	2042
2047	2043
2046	2043
2044	2047
2043	2047
2047	2047
2058	2046
2061	2045
2059	2043
2067	2040
2078	2036
2079	2034
2065	2031
2057	2033
2054	2035
2053	2035
2045	2036
2031	2029
2041	2028
2047	2030
2045	2036
2037	2041
2037	2049
2035	2050
2028	2053
2025	2053
2032	2053
2036	2052
2037	2052
2050	2050
2098	2050
2143	2044
2152	2045
2123	2041
2059	2039
2020	2036
1991	2036
1942	2035
1917	2036
1933	2035
1961	2035
1993	2032
2017	2032
2026	2034
2025	2034
2023	2037
2042	2041
2051	2047
2044	2055
2043	2050
2051	2054
2057	2057
2053	2054
2047	2050
2064	2046
2071	2044
2074	2043
2073	2036
2069	2035
2065	2030
2068	2034
2063	2039
2075	2043
2079	2045
2070	2047
2071	2043
2083	2044
2080	2044
2070	2043
2074	2043
2094	2045
2096	2045
2097	2045
2091	2042
2095	2043
2101	2049
2090	2048
2088	2047
2094	2047
2103	2044
2099	2048
2090	2043
2089	2046
2090	2050
2075	2047
2068	2048
2074	2051
2076	2052
2059	2051
2040	2051
2035	2047
2039	2042
2031	2039
2021	2034
2010	2035
2014	2037
2004	2040
1999	2039
2003	2043
2002	2050
1997	2053
1997	2051
2010	2052
2011	2055
2005	2053
2004	2057
2019	2053
2021	2054
2005	2047
2008	2041
2027	2038
2029	2035
2008	2032
2004	2032
2017	2031
2025	2035
2017	2037
2018	2040
2024	2044
2021	2049
2021	2047
2019	2046
2020	2040
2018	2037
2018	2037
2020	2036
2033	2034
2037	2037
2020	2038
2025	2033
2035	2036
2035	2033
2026	2034
2023	2033
2035	2031
2037	2033
2032	2026
2027	2009
2029	1995
2033	1981
2033	1973
2035	1976
2038	1984
2037	2000
2027	2015
2029	2037
2041	2053
2042	2068
2035	2077
2031	2084
2042	2085
2039	2087
2029	2088
2027	2085
2034	2082
2038	2073
2037	2068
2033	2064
2043	2064
2047	2061
2043	2058
2037	2053
2042	2049
2045	2047
2043	2041
2039	2037
2043	2039
2059	2037
2061	2033
2053	2030
2068	2030
2065	2026
2066	2026
2063	2022
2066	2023
2067	2026
2054	2027
2037	2023
2043	2024
2045	2025
2035	2025
2032	2026
2036	2027
2044	2029
2027	2032
2022	2037
2030	2043
2036	2046
2034	2050
2041	2048
2056	2051
2075	2051
2115	2050
2150	2042
2162	2041
2113	2043
2055	2043
2019	2036
1979	2031
1930	2028
1915	2026
1938	2025
1975	2025
1996	2031
2013	2037
2024	2035
2031	2043
2039	2051
2041	2056
2045	2057
2052	2061
2055	2063
2050	2066
2048	2070
2058	2072
2064	2075
2065	2078
2059	2072
2059	2067
2061	2063
2066	2064
2060	2060
2073	2059
2079	2056
2073	2054
2071	2050
2087	2050
2086	2042
2061	2035
2060	2022
2077	2016
2093	2017
2088	2010
2088	2008
2092	2011
2103	2014
2102	2017
2093	2022
2099	2025
2106	2028
2099	2030
2095	2026
2096	2030
2097	2034
2083	2038
2075	2037
2081	2039
2082	2037
2069	2043
2062	2043
2061	2049
2043	2053
2030	2054
2007	2052
2010	2054
2016	2049
2015	2046
2001	2047
2001	2047
2005	2043
2004	2046
1993	2043
2000	2043
2007	2041
2003	2041
2005	2037
2011	2037
2017	2035
2007	2035
1997	2038
2010	2039
2010	2041
2002	2041
2009	2037
2021	2035
2027	2035
2019	2028
2004	2022
2011	2025
2023	2027
2024	2021
2018	2015
2018	2015
2021	2013
2024	2015
2019	2021
2028	2027
2026	2030
2021	2039
2016	2037
2020	2043
2031	2041
2023	2046
2017	2043
2020	2047
2033	2046
2029	2048
2021	2048
2023	2049
2031	2047
2028	2043
2028	2043
2032	2041
2032	2041
2027	2047
2026	2045
2034	2050
2029	2047
2023	2046
2024	2044
2038	2047
2028	2042
2025	2042
2011	2033
2011	2039
2021	2037
2023	2037
2019	2036
2028	2043
2027	2042
2027	2046
2025	2043
2031	2042
2033	2038
2031	2038
2029	2032
2038	2030
2042	2030
2036	2029
2030	2028
2044	2037
2046	2038
2040	2044
2045	2045
2054	2045
2061	2048
2060	2048
2061	2045
2057	2042
2049	2038
2045	2040
2034	2028
2034	2032
2031	2034
2023	2033
2035	2030
2043	2033
2039	2033
2031	2041
2029	2036
2029	2041
2029	2042
2023	2045
2034	2042
2067	2045
2108	2047
2148	2052
2165	2048
2142	2051
2077	2051
2023	2050
1972	2044
1929	2041
1922	2036
1931	2037
1956	2036
1996	2037
2017	2036
2022	2034
2031	2028
2042	2029
2046	2025
2050	2029
2052	2028
2058	2031
2069	2031
2069	2035
2071	2036
2075	2043
2077	2043
2069	2047
2065	2049
2077	2053
2079	2051
2076	2053
2068	2049
2078	2054
2085	2055
2079	2056
2075	2057
2085	2058
2095	2054
2093	2055
2094	2048
2090	2049
2095	2050
2090	2050
2091	2043
2097	2045
2101	2041
2101	2036
2098	2032
2112	2034
2114	2029
2100	2031
2093	2029
2099	2031
2112	2031
2109	2033
2091	2029
2083	2035
2080	2034
2071	2040
2055	2041
2049	2047
2049	2048
2037	2047
2012	2041
2008	2043
2009	2035
2003	2028
2004	2024
2009	2023
2010	2022
2001	2028
1999	2027
2006	2031
2013	2032
2003	2034
2001	2033
2013	2041
2027	2045
2023	2050
2008	2046
2015	2042
2014	2040
2013	2038
2015	2033
2019	2036
2026	2037
2023	2040
2011	2034
2015	2039
2023	2041
2018	2042
2017	2042
2023	2044
2033	2044
2041	2046
2027	2040
2031	2041
2027	2034
2025	2038
2015	2037
2022	2038
2038	2040
2027	2041
2019	2037
2023	2041
2027	2039
2030	2042
2032	2037
2031	2038
2029	2040
2022	2039
2028	2036
2043	2040
2039	2032
2025	2033
2023	2026
2036	2026
2041	2030
2035	2033
2027	2035
2028	2037
2032	2037
2029	2042
2033	2036
2036	2041
2042	2045
2045	2049
2042	2053
2049	2057
2049	2056
2044	2059
2044	2056
2040	2051
2049	2046
2047	2051
2044	2046
2054	2045
2063	2046
2065	2049
2061	2045
2061	2043
2057	2039
2049	2041
2031	2036
2034	2040
2035	2040
2034	2039
2027	2036
2035	2034
2030	2029
2020	2029
2018	2023
2027	2023
2034	2019
2038	2025
2044	2022
2056	2023
2093	2025
2135	2030
2151	2030
2134	2031
2071	2033
2021	2037
1982	2038
1944	2041
1922	2038
1931	2041
1949	2038
1977	2038
2005	2037
2021	2042
2027	2044
2038	2045
2041	2047
2041	2051
2053	2050
2057	2059
2068	2056
2065	2057
2059	2056
2071	2055
2074	2047
2073	2045
2063	2038
2077	2039
2084	2034
2075	2031
2070	2024
2079	2024
2084	2022
2080	2021
2074	2022
2082	2027
2095	2024
2095	2029
2088	2036
2086	2045
2094	2049
2091	2055
2093	2059
2105	2066
2110	2071
2105	2078
2097	2073
2102	2078
2111	2069
2106	2071
2100	2061
2102	2060
2105	2056
2091	2052
2082	2042
2083	2041
2081	2032
2066	2034
2055	2027
2049	2033
2041	2030
2021	2031
2015	2029
2021	2027
2015	2023
2002	2027
1993	2025
1996	2029
2004	2031
1998	2036
1989	2034
1993	2043
2002	2047
1999	2054
2001	2050
2010	2049
2014	2043
2015	2043
2020	2034
2028	2037
2029	2037
2020	2038
2012	2034
2013	2039
2021	2045
2034	2048
2028	2041
2031	2045
2037	2049
2030	2057
2020	2058
2021	2062
2027	2059
2026	2060
2024	2052
2035	2048
2048	2040
2037	2041
2025	2033
2029	2030
2042	2022
2040	2023
2039	2020
2042	2017
2038	2014
2029	2014
2019	2005
2023	2014
2037	2011
2031	2021
2032	2023
2037	2036
2035	2037
2029	2043
2029	2045
2035	2049
2046	2051
2043	2054
2041	2048
2052	2050
2049	2051
2044	2050
2041	2042
2043	2047
2049	2045
2042	2052
2040	2047
2048	2050
2047	2053
2042	2057
2039	2055
2039	2056
2049	2051
2045	2053
2037	2042
2047	2046
2055	2042
2053	2043
2053	2036
2051	2034
2052	2031
2058	2031
2059	2025
2069	2029
2067	2026
2058	2029
2042	2025
2043	2031
2043	2031
2039	2040
2031	2041
2036	2045
2043	2042
2036	2047
2033	2043
2039	2052
2040	2054
2029	2058
2026	2059
2039	2062
2063	2064
2089	2065
2127	2058
2153	2055
2157	2049
2097	2044
2034	2039
2006	2033
1962	2028
1925	2029
1924	2024
1953	2025
1988	2025
2007	2028
2019	2027
2033	2026
2039	2025
2033	2021
2030	2012
2045	2020
2056	2024
2053	2034
2048	2032
2055	2035
2067	2036
2064	2043
2061	2043
2067	2050
2068	2052
2064	2057
2051	2056
2061	2056
2065	2056
2065	2063
2059	2064
2062	2064
2069	2063
2074	2069
2079	2063
2077	2063
2086	2059
2075	2062
2066	2057
2080	2054
2093	2046
2081	2042
2077	2032
2085	2027
2095	2025
2095	2024
2087	2016
2090	2013
2096	2013
2088	2016
2072	2013
2076	2021
2081	2021
2075	2027
2065	2025
2063	2030
2050	2030
2032	2039
2023	2037
2014	2045
2018	2049
2011	2055
1995	2054
1991	2058
2001	2057
2007	2059
1998	2058
1997	2065
2008	2064
2007	2067
2011	2068
2011	2071
2011	2065
2005	2058
2005	2049
2012	2049
2022	2038
2018	2038
2005	2027
2004	2029
2016	2029
2016	2033
2014	2033
2018	2036
2024	2036
2017	2043
2016	2039
2020	2042
2018	2039
2020	2041
2008	2042
2021	2045
2028	2042
2033	2043
2028	2037
2029	2038
2026	2032
2022	2033
2025	2025
2023	2031
2029	2028
2028	2032
2027	2025
2033	2031
2033	2029
2022	2030
2025	2026
2027	2030
2033	2029
2032	2032
2025	2027
2033	2032
2033	2034
2031	2043
2031	2043
2031	2050
2040	2050
2043	2052
2038	2049
2037	2051
2048	2049
2041	2056
2035	2059
2039	2062
2045	2056
2042	2058
2037	2049
2041	2053
2048	2044
2048	2049
2045	2043
2047	2040
2058	2035
2057	2042
2050	2038
2051	2039
2057	2036
2051	2039
2043	2035
2042	2036
2053	2035
2057	2041
2053	2041
2065	2049
2066	2047
2057	2048
2035	2038
2034	2039
2041	2041
2040	2048
2032	2040
2030	2043
2035	2040
2030	2039
2023	2035
2027	2034
2034	2033
2036	2039
2035	2031
2044	2032
2065	2029
2097	2032
2127	2025
2151	2027
2137	2025
2076	2033
2031	2032
1994	2035
1935	2033
1902	2041
1919	2040
1955	2039
1991	2035
2006	2029
2015	2025
2025	2028
2042	2028
2043	2038
2042	2038
2047	2045
2059	2048
2057	2058
2053	2052
2053	2056
2060	2055
2059	2059
2057	2057
2063	2059
2070	2058
2065	2065
2062	2059
2066	2056
2073	2057
2073	2058
2069	2053
2070	2053
2078	2046
2082	2046
2079	2042
2080	2041
2087	2041
2077	2046
2077	2038
2090	2043
2099	2041
2087	2043
2082	2039
2089	2041
2099	2037
2096	2023
2094	2003
2104	1990
2112	1981
2099	1985
2093	1986
2083	1995
2089	2001
2084	2012
2072	2014
2058	2023
2052	2028
2041	2035
2025	2036
2027	2042
2019	2046
2008	2054
2000	2050
2005	2051
2012	2052
2001	2055
1995	2052
2005	2052
2013	2047
2013	2054
2003	2048
2003	2050
2010	2047
2008	2051
1999	2050
2005	2053
2015	2048
2012	2051
2003	2051
2009	2052
2013	2047
2020	2046
2017	2037
2017	2040
2028	2036
2028	2035
2017	2029
2014	2025
2023	2025
2022	2025
2018	2023
2020	2024
2033	2026
2033	2034
2025	2030
2022	2034
2023	2031
2017	2038
2010	2038
2017	2043
2026	2044
2026	2053
2017	2048
2017	2048
2031	2046
2037	2048
2030	2046
2031	2047
2035	2043
2034	2041
2025	2032
2021	2036
2039	2031
2039	2028
2020	2020
2027	2015
2033	2012
2032	2023
2024	2018
2024	2022
2034	2021
2041	2031
2032	2027
2032	2028
2045	2025
2047	2029
2043	2023
2045	2025
2052	2022
2051	2032
2045	2028
2055	2033
2063	2041
2075	2050
2082	2050
2076	2053
2069	2052
2058	2056
2038	2053
2035	2057
2043	2058
2039	2066
2029	2064
2034	2063
2048	2059
2051	2064
2037	2058
2046	2061
2050	2057
2043	2061
2041	2056
2046	2056
2072	2052
2121	2055
2153	2044
2164	2041
2111	2037
2046	2040
2010	2033
1969	2035
1944	2033
1922	2038
1927	2035
1955	2041
1994	2039
2017	2044
2029	2041
2043	2046
2053	2048
2047	2053
2040	2050
2046	2050
2059	2050
2065	2057
2063	2057
2070	2057
2073	2053
2068	2057
2063	2054
2067	2058
2069	2055
2072	2057
2074	2051
2070	2046
2071	2042
2070	2040
2076	2030
2075	2031
2077	2026
2076	2029
2080	2026
2084	2030
2088	2028
2089	2034
2085	2034
2090	2041
2106	2044
2106	2049
2099	2043
2103	2044
2107	2039
2111	2043
2107	2034
2105	2035
2104	2034
2095	2036
2075	2031
2070	2031
2081	2028
2070	2031
2051	2032
2041	2037
2038	2036
2027	2046
2013	2046
2016	2054
2015	2055
2010	2059
1994	2054
1990	2055
1990	2046
1992	2048
1991	2040
2005	2036
2005	2030
2013	2032
1997	2026
1998	2026
2010	2023
2013	2030
2012	2026
2015	2031
2019	2029
2012	2036
2011	2031
2015	2037
2032	2037
2027	2040
2016	2032
2022	2034
2032	2031
2026	2040
2012	2038
2017	2041
2027	2043
2031	2054
2027	2050
2030	2049
2030	2046
2023	2047
2015	2035
2017	2039
2025	2031
2028	2038
2023	2033
2024	2035
2033	2031
2027	2034
2021	2031
2023	2034
2037	2028
2034	2029
2027	2025
2030	2026
2039	2026
2038	2031
2031	2029
2028	2035
2029	2031
2033	2041
2030	2037
2035	2042
2046	2042
2048	2048
2028	2049
2027	2060
2037	2056
2035	2063
2038	2061
2042	2064
2045	2059
2042	2058
2033	2059
2031	2063
2042	2061
2036	2067
2034	2060
2048	2059
2056	2053
2049	2057
2048	2050
2055	2054
2062	2055
2059	2057
2051	2051
2061	2052
2070	2042
2061	2045
2052	2038
2051	2039
2048	2038
2035	2039
2026	2035
2033	2032
2044	2027
2042	2031
2037	2027
2033	2032
2042	2035
2040	2039
2033	2035
2037	2040
2043	2037
2044	2046
2047	2042
2085	2046
2143	2050
2174	2049
2161	2043
2097	2046
2054	2040
2022	2041
1969	2036
1917	2041
1923	2039
1947	2046
1971	2042
2002	2044
2026	2043
2030	2040
2029	2034
2034	2037
2042	2032
2045	2035
2039	2030
2037	2031
2051	2030
2057	2038
2061	2034
2059	2033
2062	2029
2058	2029
2053	2024
2057	2026
2063	2025
2061	2025
2055	2027
2063	2034
2077	2033
2078	2042
2075	2039
2077	2046
2089	2045
2089	2051
2081	2047
2083	2051
2087	2051
2087	2053
2085	2052
2092	2055
2102	2048
2096	2053
2089	2048
2091	2052
2100	2052
2097	2053
2087	2052
2087	2051
2091	2045
2092	2044
2077	2036
2061	2034
2063	2025
2059	2025
2043	2020
2040	2023
2045	2024
2033	2035
2013	2034
2010	2037
2015	2041
2003	2044
1993	2038
2001	2038
2012	2041
2017	2050
2002	2046
1998	2054
2003	2051
2009	2057
2004	2053
2010	2058
2014	2059
2013	2063
2014	2057
2023	2060
2026	2057
2018	2052
2009	2042
2012	2041
2017	2038
2020	2041
2014	2034
2019	2030
2025	2026
2015	2027
2012	2019
2015	2017
2023	2014
2035	2020
2027	2019
2025	2023
2030	2021
2031	2021
2030	2017
2028	2014
2023	2016
2021	2014
2024	2010
2024	2014
2029	2016
2028	2023
2031	2025
2038	2029
2042	2030
2034	2031
2035	2029
2034	2036
2041	2039
2046	2047
2029	2047
2027	2055
2035	2053
2039	2059
2032	2058
2034	2060
2037	2066
2039	2073
2028	2073
2038	2076
2048	2073
2044	2081
2035	2076
2038	2073
2050	2066
2049	2067
2045	2063
2045	2060
2045	2051
2051	2050
2043	2044
2039	2045
2048	2037
2051	2031
2049	2020
2053	2016
2053	2008
2051	2012
2045	2005
2053	2005
2070	2009
2073	2016
2061	2015
2065	2024
2071	2029
2063	2039
2039	2033
2031	2036
2037	2036
2040	2041
2041	2040
2038	2045
2047	2047
2042	2053
2037	2053
2037	2056
2030	2056
2028	2060
2041	2054
2058	2052
2088	2048
2137	2049
2163	2045
2155	2047
2099	2044
2051	2045
2007	2038
1954	2036
1923	2032
1930	2039
1950	2036
1980	2037
2009	2037
2025	2043
2018	2039
2024	2043
2041	2041
2045	2045
2043	2046
2046	2045
2054	2041
2061	2041
2051	2036
2057	2037
2068	2034
2072	2038
2069	2037
2072	2042
2075	2039
2075	2043
2069	2042
2069	2045
2079	2041
2083	2045
2074	2038
2074	2040
2088	2037
2087	2041
2073	2039
2073	2041
2082	2036
2091	2037
2093	2034
2096	2038
2101	2039
2095	2042
2085	2043
2096	2046
2105	2047
2104	2055
2092	2053
2099	2055
2106	2053
2106	2058
2083	2058
2070	2059
2076	2058
2075	2062
2055	2058
2039	2053
2039	2049
2039	2046
2020	2040
2012	2039
2018	2037
2009	2036
2001	2033
2007	2032
2012	2020
2006	2020
1999	2020
2001	2023
2009	2024
2013	2031
2010	2033
2017	2038
2015	2037
2010	2041
2009	2038
2014	2043
2012	2041
2019	2042
2019	2039
2021	2034
2032	2029
2032	2034
2020	2034
2017	2041
2022	2043
2027	2050
2022	2054
2019	2059
2026	2058
2032	2059
2015	2052
2018	2050
2023	2044
2018	2047
2009	2044
2013	2045
2029	2043
2029	2047
2031	2048
2025	2047
2036	2042
2034	2045
2028	2043
2026	2041
2029	2039
2025	2042
2026	2040
2029	2046
2035	2042
2029	2046
2034	2040
2033	2038
2035	2034
2025	2036
2028	2033
2033	2031
2043	2032
2038	2034
2033	2031
2031	2033
2040	2032
2042	2030
2041	2028
2042	2028
2043	2028
2036	2031
2028	2030
2028	2031
2039	2022
2041	2027
2039	2032
2042	2035
2055	2035
2053	2044
2049	2038
2054	2040
2069	2033
2064	2033
2053	2030
2059	2032
2067	2027
2072	2030
2068	2029
2060	2034
2058	2036
2048	2041
2041	2045
2030	2049
2038	2049
2046	2053
2044	2049
2046	2053
2047	2046
2043	2049
2024	2041
2024	2042
2039	2034
2038	2031
2034	2029
2050	2021
2083	2015
2129	2011
2151	2004
2137	2002
2080	2000
2032	2007
1983	2003
1930	2003
1915	2006
1936	2017
1960	2024
1980	2032
2001	2040
2022	2049
2030	2051
2040	2056
2051	2052
2049	2057
2039	2052
2046	2051
2061	2050
2067	2054
2057	2047
2070	2051
2078	2046
2075	2049
2061	2044
2057	2046
2068	2040
2071	2041
2065	2036
2064	2038
2073	2041
2079	2046
2079	2044
2083	2048
2088	2048
2090	2053
2087	2045
2082	2046
2091	2043
2091	2045
2089	2040
2090	2039
2108	2031
2107	2040
2099	2037
2099	2040
2104	2036
2107	2042
2100	2041
2093	2040
2105	2040
2103	2048
2087	2046
2083	2051
2076	2046
2073	2049
2062	2042
2043	2046
2038	2043
2028	2046
2017	2048
2009	2045
2010	2037
2005	2039
2001	2037
2004	2039
2004	2033
1990	2037
1987	2038
1990	2040
2002	2037
2003	2038
2007	2033
2005	2034
2011	2035
2010	2036
2007	2039
2005	2040
2013	2042
2020	2049
2013	2051
2017	2053
2029	2051
2019	2054
2015	2049
2011	2047
2019	2044
2018	2045
2008	2044
2012	2042
2021	2039
2025	2040
2022	2035
2018	2034
2027	2033
2025	2022
2024	2005
2017	1995
2021	1993
2024	2000
2018	2006
2020	2017
2035	2023
2035	2032
2027	2041
2021	2047
2034	2048
2037	2057
2038	2060
2031	2068
2032	2068
2029	2078
2032	2076
2033	2075
2037	2065
2038	2062
2034	2058
2028	2059
2025	2050
2029	2048
2031	2038
2031	2034
2043	2031
2043	2029
2029	2026
2032	2027
2044	2025
2049	2025
2043	2025
2041	2026
2050	2025
2053	2026
2045	2026
2054	2027
2061	2027
2056	2027
2052	2027
2057	2033
2071	2032
2065	2035
2059	2042
2050	2046
2044	2050
2042	2051
2032	2053
2028	2053
2038	2051
2044	2058
2037	2055
2038	2051
2051	2052
2043	2054
2026	2046
2034	2046
2049	2044
2061	2041
2075	2045
2108	2050
2156	2053
2171	2055
2113	2055
2043	2053
2007	2044
1977	2039
1934	2034
1922	2035
1949	2037
1976	2036
1995	2028
2011	2035
2029	2036
2042	2038
2040	2033
2045	2031
2065	2032
2063	2040
2057	2035
2058	2036
2065	2032
2073	2039
2077	2035
2065	2039
2071	2037
2076	2041
2070	2038
2060	2039
2068	2036
2071	2041
2064	2041
2072	2039
2079	2038
2080	2041
2072	2034
2071	2032
2082	2033
2086	2035
2085	2033
2086	2035
2093	2036
2097	2043
2094	2037
2095	2038
2097	2036
2101	2037
2087	2034
2087	2037
2100	2038
2108	2044
2094	2045
2090	2055
2088	2056
2085	2058
2081	2056
2075	2055
2073	2058
2059	2057
2043	2050
2029	2049
2030	2052
2024	2051
2013	2054
2007	2058
2007	2062
2006	2066
1995	2065
1990	2063
1997	2058
2011	2059
2011	2055
2004	2054
2009	2045
2009	2045
2005	2039
2002	2039
2012	2036
2012	2041
2015	2039
2002	2038
2017	2034
2021	2033
2019	2028
2017	2032
2030	2031
2032	2035
2021	2032
2014	2030
2024	2030
2027	2029
2027	2031
2026	2034
2032	2036
2031	2038
2020	2035
2008	2033
2015	2033
2017	2038
2016	2034
2013	2041
2025	2042
2024	2049
2012	2047
2016	2053
2025	2049
2021	2046
2016	2047
2023	2045
2037	2042
2038	2040
2024	2035
2024	2033
2027	2029
2030	2029
2025	2026
2026	2026
2029	2028
2041	2040
2027	2040
2020	2047
2029	2043
2034	2047
2021	2046
2019	2045
2033	2042
2040	2042
2037	2040
2028	2037
2039	2032
2036	2035
2036	2037
2038	2035
2038	2034
2040	2034
2032	2032
2037	2037
2046	2035
2055	2032
2061	2032
2054	2034
2065	2034
2064	2037
2060	2034
2059	2037
2063	2041
2059	2041
2039	2042
2033	2047
2039	2045
2044	2047
2038	2045
2038	2046
2055	2051
2055	2057
2043	2062
2045	2060
2045	2058
2052	2059
2057	2054
2063	2050
2088	2039
2137	2031
2167	2023
2173	2022
2127	2017
2073	2017
2037	2021
1994	2020
1949	2024
1943	2031
1957	2035
1979	2034
2008	2043
2029	2053
2035	2053
2032	2054
2044	2053
2057	2055
2059	2056
2059	2059
2064	2061
2067	2059
2060	2056
2059	2051
2073	2049
2078	2051
2076	2048
2062	2043
2063	2041
2070	2045
2072	2039
2069	2040
2082	2034
2088	2039
2078	2040
2076	2042
2076	2040
2084	2040
2086	2041
2081	2040
2088	2042
2097	2048
2089	2045
2083	2044
2087	2045
2094	2047
2096	2047
2095	2043
2101	2043
2105	2047
2097	2051
2092	2049
2093	2049
2096	2048
2085	2042
2077	2037
2076	2036
2081	2035
2065	2030
2049	2029
2044	2028
2035	2029
2024	2029
2020	2033
2014	2039
2019	2043
2015	2045
2014	2045
2014	2048
2017	2047
2009	2048
2010	2049
2020	2048
2018	2045
2012	2042
2005	2044
2005	2043
2022	2049
2017	2042
2014	2043
2015	2041
2019	2041
2017	2040
2013	2039
2020	2039
2027	2040
2023	2038
2015	2039
2022	2034
2025	2041
2022	2038
2017	2037
2015	2037
2027	2036
2033	2032
2027	2034
2024	2030
2017	2032
2015	2032
2011	2027
2023	2026
2037	2029
2030	2029
2013	2030
2019	2029
2029	2031
2030	2030
2028	2032
2029	2032
2030	2031
2026	2030
2029	2031
2033	2032
2029	2037
2031	2042
2033	2044
2041	2046
2033	2046
2029	2045
2023	2043
2025	2045
2043	2048
2033	2046
2026	2041
2028	2039
2036	2039
2028	2039
2035	2038
2043	2039
2043	2039
2033	2033
2036	2035
2044	2035
2043	2031
2039	2025
2034	2024
2043	2021
2048	2018
2045	2023
2042	2019
2053	2017
2059	2023
2047	2018
2046	2005
2056	2000
2056	2007
2054	2015
2062	2019
2079	2027
2086	2037
2073	2047
2058	2059
2051	2065
2035	2071
2032	2068
2032	2067
2041	2066
2050	2069
2045	2069
2039	2071
2045	2068
2038	2068
2030	2063
2033	2058
2047	2048
2065	2050
2081	2046
2115	2046
2153	2049
2168	2046
2118	2042
2059	2044
2034	2041
1993	2041
1940	2042
1927	2043
1949	2050
1974	2052
2001	2053
2017	2049
2023	2046
2033	2042
2032	2042
2033	2038
2039	2040
2050	2042
2046	2043
2043	2042
2052	2036
2058	2044
2055	2040
2057	2041
2068	2034
2064	2033
2058	2031
2058	2025
2066	2025
2069	2027
2065	2030
2062	2031
2076	2031
2083	2034
2075	2034
2067	2033
2066	2027
2077	2027
2075	2024
2074	2026
2089	2024
2095	2027
2092	2028
2081	2028
2090	2032
2096	2038
2100	2040
2096	2041
2091	2040
2093	2046
2089	2048
2095	2047
2095	2050
2089	2049
2075	2050
2060	2054
2061	2055
2059	2058
2053	2057
2041	2057
2036	2054
2023	2057
2019	2053
2009	2043
2004	2040
2007	2040
1999	2039
1997	2033
2009	2032
2012	2033
2007	2025
2005	2024
2017	2025
2025	2027
2007	2032
2004	2037
2014	2036
2023	2040
2023	2038
2021	2040
2019	2038
2021	2045
2016	2043
2019	2039
2025	2038
2024	2039
2022	2036
2028	2031
2033	2030
2022	2026
2010	2027
2005	2027
2009	2031
2021	2036
2022	2040
2015	2045
2011	2049
2020	2048
2015	2051
2005	2046
2015	2048
2019	2046
2016	2046
2010	2045
2015	2046
2023	2046
2026	2043
2016	2041
2017	2036
2020	2033
2019	2035
2018	2033
2018	2033
2024	2033
2027	2032
2015	2029
2019	2027
2025	2037
2017	2040
2011	2045
2031	2051
2037	2057
2031	2058
2021	2057
2021	2063
2027	2064
2025	2062
2024	2061
2032	2061
2043	2059
2040	2057
2033	2055
2028	2053
2041	2051
2043	2043
2047	2039
2057	2035
2058	2031
2048	2028
2032	2026
2044	2026
2055	2023
2059	2025
2058	2027
2063	2026
2067	2028
2074	2032
2069	2037
2058	2042
2048	2045
2039	2048
2033	2048
2029	2047
2037	2045
2044	2044
2043	2049
2041	2051
2039	2053
2031	2057
2030	2053
2028	2060
2031	2060
2030	2057
2047	2055
2087	2057
2135	2060
2159	2054
2148	2050
2087	2046
2034	2039
1986	2035
1939	2032
1921	2030
1922	2030
1937	2036
1970	2038
1995	2043
2015	2046
2026	2049
2031	2045
2046	2044
2052	2045
2051	2049
2045	2045
2054	2040
2064	2039
2067	2037
2061	2034
2068	2034
2069	2036
2056	2037
2053	2033
2060	2034
2077	2033
2073	2034
2072	2037
2074	2041
2076	2043
2078	2041
2079	2039
2077	2043
2079	2042
2072	2039
2075	2036
2086	2038
2093	2039
2094	2038
2092	2037
2093	2034
2103	2037
2104	2036
2107	2034
2100	2032
2104	2028
2099	2026
2089	2019
2086	2019
2085	2024
2081	2031
2069	2033
2076	2041
2077	2047
2063	2050
2044	2051
2044	2063
2046	2068
2032	2075
2009	2075
2005	2074
2012	2078
2000	2074
1996	2064
2000	2056
2002	2051
1997	2054
1996	2053
2000	2056
2011	2055
2015	2048
2007	2039
2007	2029
2013	2025
2002	2023
2003	2010
2022	2008
2025	2004
2015	2005
2015	2010
2020	2017
2023	2020
2017	2023
2021	2029
2023	2032
2025	2038
2023	2042
2024	2049
2027	2053
2022	2055
2017	2060
2025	2052
2025	2056
2039	2056
2030	2058
2015	2053
2021	2053
2027	2056
2027	2061
2024	2053
2029	2046
2034	2043
2033	2044
2025	2047
2026	2050
2035	2048
2032	2043
2029	2034
2038	2033
2043	2027
2027	2028
2020	2024
2027	2020
2038	2023
2038	2022
2030	2024
2032	2027
2039	2035
2032	2041
2030	2040
2032	2044
2036	2039
2039	2033
2039	2022
2040	2018
2038	2009
2031	2011
2023	2013
2035	2022
2047	2027
2048	2032
2041	2039
2041	2039
2055	2050
2049	2059
2045	2063
2055	2062
2063	2070
2061	2070
2057	2070
2058	2071
2067	2069
2070	2070
2071	2067
2072	2065
2068	2066
2063	2062
2042	2054
2032	2049
2037	2041
2037	2038
2036	2030
2041	2026
2039	2024
2035	2024
2025	2022
2029	2023
2045	2026
2042	2028
2036	2026
2043	2029
2055	2032
2077	2031
2123	2029
2149	2035
2149	2034
2082	2040
2013	2037
1995	2037
1957	2045
1927	2051
1935	2050
1962	2055
1984	2057
2003	2059
2017	2057
2036	2057
2044	2058
2034	2057
2033	2053
2046	2051
2061	2047
2053	2049
2045	2045
2059	2038
2070	2036
2066	2033
2053	2029
2062	2025
2072	2027
2078	2028
2074	2031
2076	2029
2076	2033
2071	2035
2071	2035
2082	2034
2085	2032
2075	2035
2073	2033
2082	2035
2084	2035
2081	2036
2085	2036
2083	2034
2096	2034
2103	2039
2101	2041
2095	2041
2104	2043
2100	2042
2089	2039
2093	2035
2101	2034
2085	2035
2078	2034
2070	2036
2083	2034
2079	2035
2064	2039
2063	2039
2059	2049
2049	2053
2033	2055
2031	2053
2029	2053
2013	2053
2006	2049
2013	2042
2007	2041
1997	2043
1989	2040
1995	2039
2009	2037
2008	2032
2003	2026
2000	2028
2010	2026
2018	2022
2014	2022
2021	2021
2022	2021
2010	2024
2004	2025
2015	2026
2029	2028
2029	2032
2015	2037
2015	2039
2020	2041
2021	2043
2011	2039
2013	2044
2024	2050
2022	2049
2022	2048
2015	2046
2018	2045
2019	2049
2025	2048
2020	2053
2025	2059
2021	2062
2022	2068
2029	2073
2029	2071
2012	2071
2012	2062
2017	2054
2030	2047
2030	2043
2023	2037
2018	2035
2027	2035
2024	2028
2023	2024
2033	2021
2043	2022
2034	2026
2025	2029
2023	2030
2032	2031
2030	2033
2025	2034
2031	2038
2032	2036
2029	2042
2021	2043
2019	2044
2030	2046
2031	2045
2032	2037
2036	2033
2036	2032
2031	2035
2025	2033
2026	2040
2030	2045
2035	2047
2034	2051
2043	2048
2049	2051
2039	2054
2039	2049
2049	2052
2054	2058
2058	2058
2053	2059
2057	2060
2065	2058
2061	2056
2061	2051
2045	2051
2045	2043
2033	2045
2026	2041
2035	2039
2035	2039
2026	2040
2014	2038
2017	2038
2023	2040
2021	2049
2020	2046
2023	2045
2029	2046
2047	2046
2081	2046
2129	2046
2151	2045
2127	2043
2057	2045
2029	2049
2003	2046
1941	2045
1913	2040
1927	2042
1955	2036
1977	2035
2001	2033
2026	2034
2034	2029
2029	2031
2023	2024
2027	2027
2043	2027
2046	2028
2041	2031
2047	2039
2055	2041
2059	2049
2059	2046
2061	2049
2069	2049
2065	2048
2055	2045
2061	2044
2071	2042
2066	2040
2072	2037
2076	2036
2091	2036
2076	2040
2074	2037
2079	2036
2086	2035
2084	2033
2077	2031
2085	2035
2094	2039
2094	2042
2096	2045
2099	2046
2100	2051
2104	2055
2103	2056
2101	2055
2097	2054
2088	2056
2085	2054
2094	2056
2097	2054
2086	2056
2063	2049
2062	2047
2068	2041
2056	2040
2041	2029
2030	2027
2024	2030
2013	2040
2007	2039
2009	2042
2006	2041
2004	2042
1997	2036
1999	2036
2011	2036
2009	2040
2006	2037
2013	2033
2019	2029
2013	2026
2006	2023
2011	2023
2019	2022
2024	2025
2019	2025
2015	2022
2023	2028
2025	2034
2017	2029
2020	2031
2028	2029
2025	2024
2024	2022
2026	2019
2034	2017
2027	2023
2011	2022
2016	2030
2027	2033
2026	2040
2032	2048
2032	2055
2028	2056
2023	2060
2026	2059
2030	2052
2034	2057
2034	2058
2026	2054
2029	2053
2037	2047
2035	2042
2032	2035
2041	2038
2044	2034
2045	2038
2026	2035
2032	2038
2039	2036
2027	2041
2025	2041
2028	2046
2031	2044
2023	2046
2022	2041
2027	2038
2050	2030
2045	2033
2036	2026
2031	2024
2033	2020
2034	2023
2034	2021
2037	2024
2044	2027
2042	2029
2041	2025
2050	2029
2053	2030
2042	2036
2037	2038
2035	2043
2052	2053
2055	2062
2051	2064
2061	2068
2064	2069
2059	2071
2059	2066
2065	2066
2074	2068
2067	2067
2058	2058
2050	2058
2050	2055
2047	2054
2036	2043
2035	2038
2047	2035
2043	2040
2035	2037
2040	2036
2044	2039
2033	2046
2024	2048
2024	2049
2042	2047
2061	2051
2079	2043
2121	2045
2151	2045
2150	2046
2091	2047
2036	2044
2008	2037
1956	2039
1921	2036
1932	2032
1975	2031
2000	2029
2014	2025
2029	2024
2043	2023
2054	2029
2054	2030
2059	2034
2073	2035
2073	2036
2063	2033
2066	2035
2073	2037
2074	2040
2074	2034
2079	2036
2084	2029
2082	2031
2073	2026
2081	2029
2085	2032
2084	2039
2075	2045
2085	2050
2087	2050
2083	2053
2085	2049
2090	2052
2095	2051
2091	2051
2086	2043
2093	2043
2098	2038
2093	2034
2098	2032
2101	2032
2113	2033
2116	2038
2112	2035
2104	2037
2103	2036
2097	2040
2089	2037
2091	2037
2101	2037
2093	2041
2079	2041
2067	2039
2071	2038
2058	2039
2043	2035
2033	2030
2027	2030
2015	2029
2008	2025
1999	2025
1999	2025
2002	2030
1992	2031
1995	2038
2000	2037
2001	2044
1996	2040
1997	2039
2005	2038
2005	2039
1999	2037
2009	2040
2020	2039
2017	2040
2013	2035
2021	2032
2019	2027
2021	2024
2032	2019
2024	2025
2021	2027
2015	2037
2010	2037
2011	2045
2026	2051
2025	2051
2016	2048
2019	2050
2028	2044
2025	2043
2019	2036
2018	2037
2028	2036
2024	2041
2020	2040
2018	2045
2030	2050
2022	2053
2019	2050
2023	2046
2036	2036
2025	2020
2015	2001
2019	1978
2031	1963
2031	1955
2025	1957
2023	1971
2034	1989
2038	2007
2035	2025
2031	2040
2033	2052
2025	2062
2019	2073
2021	2083
2031	2083
2038	2086
2040	2083
2038	2081
2039	2078
2039	2080
2040	2074
2037	2068
2042	2059
2041	2061
2045	2056
2049	2058
2059	2059
2060	2061
2061	2061
2062	2055
2075	2055
2072	2053
2063	2050
2060	2048
2062	2043
2049	2042
2040	2035
2035	2029
2042	2026
2041	2027
2043	2020
2042	2022
2039	2021
2041	2028
2045	2027
2035	2032
2037	2041
2036	2052
2049	2049
2068	2053
2101	2054
2147	2059
2162	2054
2125	2056
2058	2057
2006	2057
1963	2045
1914	2045
1908	2042
1932	2043
1950	2040
1977	2040
2003	2030
2018	2028
2020	2029
2027	2027
2038	2023
2033	2024
2036	2022
2039	2026
2046	2024
2046	2028
2050	2026
2059	2032
2075	2041
2070	2050
2065	2057
2064	2063
2069	2061
2070	2067
2063	2072
2074	2078
2087	2077
2072	2082
2066	2076
2062	2079
2071	2074
2072	2074
2070	2062
2078	2058
2090	2058
2092	2056
2096	2050
2093	2047
2090	2045
2083	2040
2082	2035
2090	2034
2095	2032
2096	2037
2090	2033
2088	2038
2089	2037
2082	2039
2074	2037
2066	2035
2069	2035
2054	2031
2035	2023
2033	2020
2035	2018
2026	2022
2013	2022
2001	2028
1999	2031
1996	2031
1994	2032
1990	2040
2003	2042
2002	2048
1993	2037
1994	2027
2007	2024
2005	2026
2009	2027
2008	2030
2009	2035
2011	2041
2015	2046
2026	2050
2019	2056
2011	2056
1999	2058
2006	2061
2022	2058
2030	2062
2028	2059
2029	2057
2038	2056
2031	2057
2019	2055
2020	2058
2036	2053
2042	2050
2037	2041
2029	2038
2029	2035
2023	2031
2021	2030
2027	2028
2033	2029
2029	2036
2033	2036
2032	2039
2032	2039
2029	2044
2029	2042
2031	2048
2037	2042
2034	2039
2027	2034
2030	2033
2041	2026
2043	2016
2025	2003
2023	1993
2041	1981
2044	1983
2045	1985
2037	1997
2041	2011
2032	2024
2026	2033
2025	2043
2046	2048
2046	2056
2042	2061
2039	2063
2049	2063
2049	2068
2042	2065
2040	2065
2047	2063
2055	2067
2048	2064
2047	2058
2053	2050
2050	2050
2050	2048
2057	2047
2067	2042
2062	2043
2061	2041
2067	2039
2078	2043
2075	2046
2065	2041
2061	2041
2061	2036
2051	2038
2042	2037
2038	2036
2045	2033
2047	2034
2042	2029
2041	2032
2049	2033
2049	2040
2033	2038
2031	2034
2036	2031
2050	2040
2075	2043
2126	2046
2157	2047
2151	2048
2091	2040
2041	2038
2015	2035
1961	2038
1917	2039
1921	2041
1958	2042
1983	2044
2004	2044
2015	2042
2031	2041
2035	2043
2033	2042
2039	2045
2053	2042
2054	2045
2055	2036
2060	2038
2070	2034
2064	2034
2058	2031
2058	2035
2068	2033
2070	2040
2068	2040
2069	2041
2075	2038
2077	2037
2077	2041
2080	2038
2091	2034
2092	2039
2093	2038
2102	2035
2109	2037
2106	2036
2105	2035
2101	2036
2114	2033
2114	2032
2113	2034
2105	2037
2112	2040
2112	2044
2112	2042
2120	2048
2116	2051
2105	2050
2107	2050
2103	2048
2105	2046
2092	2042
2079	2041
2069	2042
2079	2041
2069	2042
2056	2043
2047	2045
2043	2047
2035	2050
2025	2047
2023	2041
2027	2035
2025	2037
2022	2035
2021	2033
2015	2037
2015	2039
2001	2043
1991	2047
1999	2051
2002	2056
2004	2056
2008	2057
2016	2054
2009	2048
2006	2044
2012	2043
2014	2038
2007	2039
2005	2035
2008	2031
2015	2029
2023	2025
2023	2024
2018	2023
2023	2024
2019	2028
2023	2030
2017	2030
2027	2029
2026	2030
2018	2027
2009	2026
2023	2026
2024	2023
2009	2007
2013	1993
2025	1983
2027	1985
2017	1989
2018	2000
2029	2011
2027	2024
2028	2032
2034	2043
2041	2049
2027	2059
2027	2064
2027	2068
2037	2073
2031	2076
2015	2079
2024	2079
2037	2080
2037	2083
2027	2079
2031	2078
2037	2076
2033	2078
2037	2070
2033	2068
2038	2062
2039	2062
2025	2055
2033	2049
2043	2045
2035	2041
2032	2035
2034	2033
2051	2032
2048	2034
2039	2033
2043	2033
2057	2033
2050	2034
2045	2035
2054	2037
2067	2045
2063	2046
2057	2041
2059	2040
2069	2038
2066	2042
2053	2041
2042	2043
2035	2044
2040	2051
2035	2050
2037	2050
2043	2050
2036	2050
2029	2045
2035	2050
2044	2045
2041	2041
2030	2037
2023	2035
2032	2031
2047	2032
2063	2032
2116	2036
2153	2032
2147	2032
2097	2032
2043	2033
2005	2035
1961	2037
1909	2039
1910	2044
1945	2046
1968	2047
1983	2045
2006	2049
2032	2051
2035	2057
2029	2053
2035	2054
2049	2055
2046	2054
2041	2050
2047	2051
2056	2045
2039	2047
2040	2037
2043	2035
2061	2030
2067	2030
2061	2026
2054	2021
2058	2023
2063	2023
2059	2017
2064	2017
2074	2015
2075	2017
2074	2015
2073	2016
2080	2009
2081	2009
2077	2006
2080	2008
2097	2010
2102	2013
2100	2019
2092	2023
2093	2031
2095	2028
2095	2015
2090	2013
2096	2020
2103	2022
2099	2026
2083	2033
2088	2037
2085	2044
2081	2043
2068	2042
2064	2044
2063	2043
2045	2039
2031	2040
2026	2037
2027	2035
2017	2037
2002	2041
2003	2039
2008	2043
2004	2044
1999	2045
2003	2053
2008	2060
2010	2061
2003	2068
2009	2070
2022	2078
2013	2080
2007	2082
2013	2080
2020	2077
2018	2076
2018	2069
2030	2064
2027	2058
2015	2050
2009	2047
2027	2042
2029	2036
2022	2035
2025	2031
2029	2029
2032	2031
2030	2030
2023	2031
2027	2031
2025	2034
2022	2035
2014	2029
2027	2027
2037	2026
2031	2024
2023	2024
2030	2025
2027	2030
2019	2032
2021	2038
2031	2041
2035	2048
2040	2052
2031	2051
2044	2051
2038	2055
2026	2054
2031	2056
2027	2055
2026	2059
2022	2052
2031	2049
2036	2042
2032	2036
2027	2027
2027	2025
2032	2025
2029	2024
2015	2023
2014	2021
2026	2025
2034	2028
2028	2031
2033	2034
2039	2038
2041	2042
2041	2037
2047	2034
2063	2033
2054	2037
2053	2039
2057	2037
2059	2038
2049	2043
2050	2046
2065	2049
2070	2048
2062	2052
2049	2054
2032	2056
2031	2056
2033	2059
2026	2056
2031	2053
2045	2054
2050	2056
2041	2056
2043	2052
2040	2047
2042	2048
2031	2046
2032	2046
2040	2040
2054	2043
2082	2045
2129	2041
2165	2041
2146	2043
2066	2038
2009	2032
1986	2031
1929	2034
1907	2037
1919	2031
1953	2029
1982	2028
2002	2027
2009	2029
2029	2029
2044	2032
2038	2028
2046	2029
2060	2031
2057	2034
2054	2034
2059	2037
2072	2044
2073	2046
2071	2052
2069	2052
2075	2053
2068	2054
2059	2057
2057	2056
2069	2057
2071	2058
2076	2060
2076	2055
2081	2051
2077	2048
2078	2045
2070	2044
2089	2047
2093	2046
2091	2043
2093	2041
2100	2040
2101	2037
2101	2043
2109	2040
2119	2039
2108	2040
2101	2041
2100	2039
2111	2037
2107	2044
2094	2046
2090	2045
2090	2050
2081	2046
2067	2045
2053	2045
2048	2043
2050	2047
2037	2045
2024	2049
2020	2049
2021	2048
2009	2047
1996	2049
1999	2051
2000	2055
2000	2056
1995	2055
2003	2050
2005	2045
2004	2040
1996	2031
1993	2026
1995	2022
1998	2020
2000	2015
2006	2017
2014	2020
2009	2021
2009	2021
2024	2018
2027	2023
2021	2023
2016	2021
2028	2023
2025	2022
2021	2020
2021	2020
2031	2028
2034	2035
2025	2044
2022	2048
2028	2054
2024	2056
2026	2061
2020	2064
2023	2064
2033	2062
2022	2062
2025	2058
2036	2051
2034	2043
2028	2033
2025	2027
2025	2018
2025	2017
2027	2015
2032	2017
2035	2019
2035	2023
2033	2029
2031	2028
2040	2030
2041	2032
2029	2031
2029	2034
2040	2039
2039	2040
2034	2038
2036	2039
2046	2042
2043	2048
2035	2045
2037	2049
2037	2053
2045	2049
2048	2050
2042	2046
2047	2044
2048	2046
2053	2045
2057	2045
2066	2045
2067	2047
2066	2049
2059	2053
2068	2057
2066	2064
2066	2066
2055	2067
2061	2064
2053	2066
2043	2064
2033	2061
2039	2055
2041	2051
2034	2044
2027	2035
2053	2033
2054	2033
2041	2034
2027	2033
2030	2034
2036	2035
2047	2037
2063	2039
2107	2043
2151	2044
2163	2047
2125	2046
2059	2046
2023	2045
1983	2043
1931	2041
1927	2040
1954	2042
1973	2042
2005	2043
2029	2045
2046	2043
2052	2043
2041	2045
2043	2051
2055	2054
2059	2055
2064	2050
2077	2043
2070	2043
2070	2040
2069	2036
2076	2035
2075	2036
2079	2033
2078	2032
2082	2028
2082	2025
2080	2015
2078	2009
2087	2003
2095	2004
2086	2005
2084	2009
2088	2017
2083	2022
2087	2025
2085	2028
2095	2029
2096	2031
2090	2035
2099	2037
2109	2036
2112	2037
2103	2039
2104	2034
2106	2033
2107	2035
2109	2037
2099	2035
2092	2042
2088	2047
2086	2052
2080	2050
2088	2056
2077	2056
2062	2057
2050	2058
2047	2059
2041	2057
2032	2061
2016	2058
2023	2051
2013	2051
2001	2045
2006	2041
2001	2035
2000	2023
1996	2007
1997	1995
2010	1997
2016	2002
2014	2009
2006	2014
2017	2024
2018	2030
2008	2037
2002	2040
2015	2044
2025	2047
2017	2044
2008	2045
2013	2044
2016	2045
2011	2047
2013	2045
2029	2049
2034	2049
2023	2052
2017	2049
2024	2049
2029	2051
2028	2054
2023	2051
2029	2050
2028	2049
2020	2052
2021	2052
2033	2055
2035	2057
2031	2056
2029	2054
2028	2053
2023	2054
2022	2051
2020	2049
2031	2049
2030	2047
2036	2048
2031	2047
2032	2045
2032	2047
2031	2048
2025	2046
2027	2043
2033	2043
2025	2037
2024	2034
2042	2037
2035	2041
2023	2039
2018	2038
2026	2035
2031	2035
2031	2033
2023	2031
2039	2027
2048	2024
2040	2027
2032	2023
2034	2023
2034	2026
2045	2029
2052	2030
2050	2038
2045	2045
2049	2051
2052	2052
2051	2054
2058	2050
2053	2050
2050	2051
2057	2054
2059	2056
2053	2056
2041	2053
2034	2053
2035	2057
2035	2054
2034	2053
2041	2057
2043	2060
2030	2057
2022	2055
2024	2057
2022	2053
2017	2051
2021	2045
2031	2041
2044	2037
2070	2033
2120	2027
2155	2026
2155	2028
2089	2029
2023	2024
1995	2021
1954	2026
1911	2027
1909	2028
1937	2029
1971	2033
1994	2033
2008	2040
2020	2043
2030	2047
2033	2048
2035	2042
2045	2044
2049	2041
2049	2044
2050	2041
2056	2041
2052	2042
2053	2040
2050	2039
2060	2038
2053	2042
2045	2046
2050	2044
2068	2047
2077	2041
2074	2035
2069	2028
2074	2029
2069	2033
2061	2035
2064	2037
2079	2043
2079	2044
2079	2047
2078	2047
2087	2055
2096	2058
2098	2065
2085	2064
2097	2067
2104	2066
2100	2063
2094	2056
2094	2053
2093	2047
2083	2047
2082	2040
2087	2033
2084	2031
2073	2031
2068	2031
2073	2030
2063	2030
2038	2031
2027	2031
2027	2032
2024	2032
2014	2037
2005	2031
2013	2037
2015	2033
2012	2031
2005	2027
2001	2031
2005	2031
2003	2035
1999	2032
2005	2035
2016	2025
2009	2013
2013	2004
2020	2003
2027	2006
2030	2014
2026	2021
2018	2025
2021	2034
2025	2039
2019	2038
2023	2042
2029	2043
2026	2049
2017	2043
2017	2042
2017	2044
2015	2043
2016	2036
2025	2035
2029	2039
2031	2038
2022	2037
2029	2035
2037	2038
2034	2036
2035	2035
2035	2039
2031	2037
2024	2043
2021	2043
2029	2049
2036	2057
2029	2061
2023	2059
2033	2061
2040	2059
2035	2061
2031	2062
2037	2063
2036	2064
2033	2067
2032	2064
2041	2059
2047	2054
2042	2054
2035	2046
2048	2040
2047	2038
2035	2033
2033	2031
2043	2027
2045	2025
2039	2023
2035	2020
2047	2023
2046	2021
2039	2023
2042	2024
2053	2027
2052	2030
2043	2035
2043	2036
2050	2041
2057	2050
2061	2057
2055	2054
2060	2051
2069	2049
2060	2050
2058	2049
2072	2044
2073	2043
2072	2047
2065	2044
2055	2044
2049	2045
2045	2049
2035	2045
2045	2044
2049	2042
2036	2041
2030	2038
2036	2036
2037	2038
2031	2040
2027	2040
2030	2039
2034	2043
2039	2045
2048	2042
2080	2046
2133	2041
2160	2041
2153	2035
2089	2037
2033	2034
1997	2035
1939	2029
1911	2029
1929	2028
1953	2032
1977	2031
1991	2036
2015	2038
2029	2029
2030	2023
2042	2025
2045	2022
2045	2019
2044	2016
2061	2017
2060	2018
2049	2018
2052	2017
2059	2017
2065	2019
2068	2023
2061	2022
2060	2028
2063	2031
2063	2037
2066	2037
2075	2049
2084	2055
2083	2057
2082	2057
2085	2060
2085	2057
2079	2061
2077	2056
2086	2054
2095	2051
2087	2047
2083	2045
2097	2043
2103	2045
2105	2046
2100	2042
2099	2039
2100	2040
2097	2039
2095	2036
2098	2039
2092	2037
2082	2038
2073	2037
2072	2037
2070	2037
2058	2037
2040	2033
2039	2035
2033	2033
2023	2039
2013	2038
2018	2042
2013	2041
1993	2040
1995	2034
2004	2035
2003	2032
1997	2031
1988	2026
1994	2030
2006	2031
2009	2036
2000	2035
2004	2039
2012	2035
2012	2033
2003	2027
2012	2029
2021	2023
2023	2027
2015	2022
2019	2021
2026	2021
2018	2029
2013	2027
2016	2034
2027	2040
2030	2045
2025	2047
2024	2055
2028	2055
2023	2058
2019	2058
2025	2057
2029	2056
2029	2053
2020	2050
2022	2055
2022	2052
2017	2054
2013	2052
2023	2056
2030	2050
2028	2051
2026	2045
2029	2047
2031	2045
2028	2042
2019	2035
2035	2034
2041	2028
2038	2025
2027	2018
2034	2019
2038	2017
2035	2021
2030	2023
2025	2025
2032	2030
2035	2033
2038	2031
2040	2034
2034	2035
2025	2042
2025	2044
2039	2049
2039	2052
2044	2054
2044	2054
2051	2061
2053	2063
2049	2067
2043	2066
2042	2068
2049	2066
2052	2067
2048	2066
2059	2064
2074	2063
2071	2062
2061	2053
2057	2046
2056	2041
2048	2037
2042	2031
2044	2029
2047	2024
2043	2027
2035	2025
2039	2028
2041	2028
2033	2035
2022	2037
2028	2039
2033	2038
2030	2035
2029	2033
2039	2036
2093	2036
2137	2037
2157	2036
2139	2036
2076	2042
2025	2047
1979	2041
1931	2040
1913	2041
1932	2043
1951	2037
1978	2035
2009	2031
2028	2031
2031	2031
2039	2037
2047	2039
2041	2043
2037	2044
2057	2053
2068	2055
2054	2057
2048	2058
2061	2056
2070	2056
2067	2051
2063	2038
2072	2033
2077	2025
2071	2021
2075	2017
2078	2020
2084	2016
2084	2019
2076	2013
2080	2017
2085	2015
2080	2024
2077	2028
2080	2036
2083	2042
2093	2051
2092	2053
2094	2055
2100	2057
2093	2055
2093	2051
2101	2055
2117	2053
2117	2055
2106	2052
2107	2055
2109	2055
2094	2055
2085	2045
2079	2046
2084	2041
2076	2040
2056	2036
2043	2036
2049	2036
2042	2038
2026	2031
2013	2028
2011	2028
2009	2031
2003	2029
2001	2031
1999	2032
2005	2032
2004	2032
2010	2038
2013	2036
2014	2041
2015	2044
2028	2045
2024	2043
2017	2046
2015	2040
2016	2040
2022	2037
2024	2043
2017	2044
2027	2050
2031	2050
2026	2055
2019	2052
2026	2053
2029	2049
2027	2053
2021	2046
2026	2049
2029	2046
2018	2050
2013	2046
2023	2052
2027	2052
2025	2057
2022	2056
2019	2063
2033	2063
2031	2062
2030	2054
2037	2047
2030	2043
2022	2045
2021	2038
2033	2039
2043	2034
2033	2031
2023	2027
2032	2031
2043	2024
2035	2027
2031	2021
2034	2022
2042	2020
2037	2024
2031	2024
2034	2028
2040	2030
2040	2032
2039	2025
2037	2032
2040	2028
2047	2033
2041	2028
2043	2034
2048	2032
2035	2036
2033	2035
2042	2033
2047	2030
2041	2033
2038	2030
2045	2031
2055	2032
2053	2036
2047	2036
2057	2039
2062	2041
2053	2043
2043	2040
2051	2047
2069	2048
2068	2054
2059	2050
2068	2050
2068	2046
2055	2049
2048	2039
2046	2039
2049	2039
2048	2043
2037	2037
2044	2038
2042	2038
2027	2040
2026	2036
2033	2041
2031	2037
2025	2037
2021	2034
2042	2035
2067	2034
2096	2036
2142	2032
2169	2034
2144	2037
2074	2040
2021	2040
1990	2042
1945	2044
1921	2053
1927	2055
1964	2061
1995	2056
2012	2057
2013	2045
2024	2045
2037	2039
2042	2041
2045	2036
2045	2037
2055	2039
2059	2043
2058	2038
2055	2035
2058	2031
2062	2031
2059	2026
2055	2025
2059	2028
2054	2032
2054	2028
2065	2033
2075	2038
2079	2041
2074	2036
2077	2041
2075	2046
2074	2052
2067	2055
2075	2063
2091	2061
2093	2064
2089	2061
2096	2066
2093	2064
2091	2063
2083	2060
2094	2058
2105	2049
2099	2046
2091	2033
2089	2026
2089	2019
2089	2022
2089	2017
2084	2019
2088	2025
2073	2024
2060	2021
2063	2023
2055	2015
2041	2011
2025	2003
2016	2009
2015	2012
2021	2021
2001	2022
1997	2028
2011	2033
2002	2041
1991	2040
1993	2046
2008	2045
1999	2046
1995	2040
2011	2040
2020	2033
2017	2037
2007	2032
2009	2034
2019	2030
2013	2031
2014	2029
2020	2033
2032	2037
2031	2048
2028	2053
2026	2058
2029	2062
2019	2069
2019	2068
2029	2074
2027	2069
2019	2073
2019	2069
2018	2071
2025	2065
2025	2064
2021	2057
2024	2058
2033	2059
2029	2060
2027	2055
2029	2056
2036	2049
2029	2047
2023	2036
2032	2038
2033	2037
2032	2045
2020	2041
2022	2042
2032	2038
2024	2037
2015	2030
2026	2030
2038	2029
2033	2029
2022	2025
2027	2022
2034	2020
2036	2026
2029	2026
2031	2031
2041	2034
2039	2042
2031	2047
2043	2050
2045	2054
2037	2059
2026	2055
2027	2060
2038	2058
2035	2057
2029	2049
2038	2047
2050	2046
2041	2051
2037	2047
2048	2044
2051	2043
2047	2041
2044	2035
2049	2032
2061	2031
2065	2034
2053	2027
2053	2027
2061	2026
2061	2027
2063	2028
2067	2034
2072	2034
2061	2043
2045	2044
2033	2043
2044	2043
2045	2049
